"Piezo Voltage (V)";"Fine In 1 (V)";
77.018837;2.942384;
77.058052;2.941834;
77.097260;2.941349;
77.136436;2.941026;
77.175644;2.940627;
77.214844;2.940232;
77.254059;2.939861;
77.293266;2.939562;
77.332481;2.939079;
77.371689;2.938721;
77.410866;2.938319;
77.450073;2.937846;
77.489288;2.937510;
77.528488;2.937057;
77.567703;2.936587;
77.606911;2.936146;
77.646118;2.935761;
77.685303;2.935342;
77.724503;2.934902;
77.763718;2.934437;
77.802917;2.933941;
77.842133;2.933576;
77.881340;2.933140;
77.920555;2.932660;
77.959724;2.932204;
77.998932;2.931783;
78.038147;2.931334;
78.077347;2.930880;
78.116562;2.930494;
78.155769;2.930089;
78.194984;2.929634;
78.234154;2.929292;
78.273369;2.928878;
78.312576;2.928524;
78.351791;2.928221;
78.390991;2.927798;
78.430199;2.927500;
78.469414;2.927221;
78.508583;2.926798;
78.547798;2.926504;
78.587006;2.926245;
78.626221;2.925944;
78.665421;2.925711;
78.704636;2.925474;
78.743843;2.925194;
78.783020;2.924926;
78.822227;2.924659;
78.861435;2.924463;
78.900650;2.924210;
78.939850;2.924028;
78.979065;2.923836;
79.018272;2.923605;
79.057449;2.923463;
79.096657;2.923324;
79.135872;2.923133;
79.175079;2.923010;
79.214279;2.922894;
79.253494;2.922738;
79.292702;2.922550;
79.331879;2.922409;
79.371086;2.922286;
79.410301;2.922059;
79.449509;2.921951;
79.488724;2.921795;
79.527924;2.921700;
79.567139;2.921475;
79.606308;2.921206;
79.645515;2.920994;
79.684731;2.920857;
79.723938;2.920560;
79.763153;2.920320;
79.802353;2.920094;
79.841568;2.919825;
79.880737;2.919598;
79.919952;2.919332;
79.959160;2.919028;
79.998367;2.918724;
80.037582;2.918437;
80.076782;2.918104;
80.115997;2.917701;
80.155167;2.917314;
80.194382;2.916902;
80.233589;2.916548;
80.272804;2.916152;
80.312012;2.915754;
80.351227;2.915396;
80.390427;2.914903;
80.429596;2.914405;
80.468811;2.913945;
80.508018;2.913465;
80.547234;2.912991;
80.586441;2.912547;
80.625656;2.912090;
80.664856;2.911600;
80.704048;2.911074;
80.743240;2.910662;
80.782455;2.910137;
80.821663;2.909644;
80.860870;2.909160;
80.900085;2.908631;
80.939247;2.908208;
80.978462;2.907712;
81.017670;2.907248;
81.056885;2.906788;
81.096092;2.906296;
81.135307;2.905933;
81.174515;2.905515;
81.213676;2.905075;
81.252892;2.904726;
81.292099;2.904320;
81.331314;2.903978;
81.370522;2.903608;
81.409737;2.903287;
81.448944;2.902938;
81.488121;2.902573;
81.527321;2.902327;
81.566536;2.902016;
81.605743;2.901750;
81.644951;2.901462;
81.684166;2.901196;
81.723373;2.900906;
81.762550;2.900782;
81.801750;2.900573;
81.840965;2.900379;
81.880173;2.900192;
81.919388;2.899991;
81.958595;2.899855;
81.997810;2.899663;
82.036995;2.899462;
82.076180;2.899379;
82.115395;2.899189;
82.154602;2.898997;
82.193817;2.898875;
82.233025;2.898716;
82.272240;2.898571;
82.311409;2.898457;
82.350624;2.898279;
82.389824;2.898091;
82.429031;2.897890;
82.468246;2.897715;
82.507454;2.897473;
82.546669;2.897282;
82.585838;2.897076;
82.625069;2.896780;
82.664253;2.896516;
82.703468;2.896341;
82.742676;2.895959;
82.781891;2.895698;
82.821098;2.895331;
82.860268;2.895007;
82.899483;2.894670;
82.938683;2.894383;
82.977898;2.893969;
83.017105;2.893493;
83.056320;2.893157;
83.095528;2.892676;
83.134705;2.892313;
83.173912;2.891896;
83.213127;2.891409;
83.252327;2.890845;
83.291534;2.890452;
83.330750;2.889891;
83.369957;2.889404;
83.409134;2.888926;
83.448341;2.888447;
83.487556;2.888021;
83.526756;2.887419;
83.565971;2.886934;
83.605179;2.886430;
83.644386;2.885866;
83.683563;2.885338;
83.722771;2.884868;
83.761986;2.884397;
83.801186;2.883919;
83.840401;2.883348;
83.879608;2.882927;
83.918823;2.882452;
83.958000;2.882057;
83.997208;2.881643;
84.036415;2.881127;
84.075615;2.880788;
84.114830;2.880322;
84.154037;2.879945;
84.193253;2.879608;
84.232422;2.879228;
84.271637;2.878897;
84.310844;2.878582;
84.350060;2.878294;
84.389259;2.877932;
84.428467;2.877648;
84.467682;2.877382;
84.506851;2.877161;
84.546082;2.876918;
84.585274;2.876720;
84.624489;2.876417;
84.663689;2.876187;
84.702904;2.876003;
84.742111;2.875857;
84.781288;2.875620;
84.820496;2.875426;
84.859703;2.875283;
84.898918;2.875052;
84.938118;2.874819;
84.977333;2.874663;
85.016541;2.874420;
85.055717;2.874197;
85.094925;2.873976;
85.134140;2.873715;
85.173347;2.873446;
85.212563;2.873212;
85.251762;2.872864;
85.290970;2.872659;
85.330147;2.872306;
85.369354;2.871999;
85.408569;2.871637;
85.447777;2.871212;
85.486992;2.870801;
85.526192;2.870395;
85.565407;2.870019;
85.604576;2.869576;
85.643784;2.869065;
85.682999;2.868614;
85.722206;2.868107;
85.761421;2.867574;
85.800621;2.867038;
85.839836;2.866446;
85.879005;2.865835;
85.918221;2.865330;
85.957428;2.864681;
85.996643;2.864056;
86.035851;2.863388;
86.075050;2.862768;
86.114265;2.862066;
86.153435;2.861445;
86.192650;2.860833;
86.231857;2.860114;
86.271072;2.859405;
86.310280;2.858827;
86.349495;2.858069;
86.388695;2.857451;
86.427872;2.856841;
86.467102;2.856167;
86.506287;2.855564;
86.545502;2.854918;
86.584709;2.854233;
86.623924;2.853661;
86.663124;2.853101;
86.702301;2.852586;
86.741508;2.852031;
86.780724;2.851522;
86.819931;2.851031;
86.859138;2.850462;
86.898354;2.849967;
86.937553;2.849652;
86.976746;2.849070;
87.015938;2.848634;
87.055153;2.848196;
87.094360;2.847884;
87.133575;2.847477;
87.172783;2.847083;
87.211998;2.846754;
87.251160;2.846383;
87.290367;2.846076;
87.329582;2.845783;
87.368790;2.845509;
87.408005;2.845251;
87.447212;2.845066;
87.486427;2.844784;
87.525589;2.844494;
87.564804;2.844275;
87.604012;2.843934;
87.643227;2.843756;
87.682434;2.843500;
87.721642;2.843261;
87.760857;2.842994;
87.800018;2.842711;
87.839233;2.842426;
87.878441;2.842188;
87.917656;2.841930;
87.956863;2.841583;
87.996078;2.841289;
88.035286;2.840967;
88.074448;2.840636;
88.113663;2.840301;
88.152870;2.839923;
88.192085;2.839515;
88.231293;2.839165;
88.270508;2.838698;
88.309715;2.838224;
88.348892;2.837803;
88.388107;2.837316;
88.427307;2.836749;
88.466515;2.836288;
88.505722;2.835730;
88.544937;2.835235;
88.584145;2.834667;
88.623322;2.834123;
88.662521;2.833540;
88.701736;2.832969;
88.740944;2.832377;
88.780159;2.831753;
88.819366;2.831156;
88.858574;2.830537;
88.897766;2.829903;
88.936951;2.829284;
88.976166;2.828638;
89.015373;2.828050;
89.054588;2.827408;
89.093796;2.826821;
89.133011;2.826109;
89.172180;2.825548;
89.211395;2.824920;
89.250595;2.824311;
89.289803;2.823701;
89.329018;2.823191;
89.368225;2.822646;
89.407440;2.822106;
89.446609;2.821577;
89.485825;2.821105;
89.525024;2.820579;
89.564240;2.820117;
89.603447;2.819615;
89.642662;2.819164;
89.681870;2.818827;
89.721039;2.818334;
89.760254;2.818036;
89.799454;2.817611;
89.838669;2.817252;
89.877876;2.816947;
89.917091;2.816642;
89.956299;2.816294;
89.995476;2.816030;
90.034683;2.815692;
90.073883;2.815517;
90.113098;2.815225;
90.152306;2.814998;
90.191521;2.814818;
90.230728;2.814564;
90.269905;2.814287;
90.309120;2.814076;
90.348328;2.813873;
90.387535;2.813675;
90.426750;2.813430;
90.465950;2.813160;
90.505157;2.812929;
90.544334;2.812727;
90.583542;2.812474;
90.622757;2.812197;
90.661964;2.811933;
90.701180;2.811578;
90.740379;2.811253;
90.779594;2.810841;
90.818787;2.810558;
90.857979;2.810222;
90.897186;2.809889;
90.936394;2.809447;
90.975609;2.809033;
91.014809;2.808637;
91.054024;2.808198;
91.093193;2.807725;
91.132408;2.807296;
91.171616;2.806788;
91.210831;2.806375;
91.250038;2.805922;
91.289238;2.805495;
91.328453;2.805013;
91.367622;2.804510;
91.406845;2.804065;
91.446045;2.803506;
91.485260;2.803118;
91.524467;2.802573;
91.563683;2.802067;
91.602882;2.801658;
91.642059;2.801210;
91.681267;2.800686;
91.720474;2.800277;
91.759689;2.799893;
91.798897;2.799457;
91.838112;2.799072;
91.877312;2.798666;
91.916489;2.798286;
91.955696;2.797968;
91.994911;2.797622;
92.034119;2.797216;
92.073334;2.796844;
92.112541;2.796548;
92.151741;2.796241;
92.190918;2.795980;
92.230125;2.795717;
92.269341;2.795461;
92.308548;2.795234;
92.347763;2.794970;
92.386971;2.794728;
92.426186;2.794482;
92.465347;2.794283;
92.504555;2.794046;
92.543770;2.793905;
92.582977;2.793661;
92.622192;2.793385;
92.661400;2.793252;
92.700615;2.793023;
92.739799;2.792775;
92.778992;2.792614;
92.818199;2.792338;
92.857414;2.792137;
92.896622;2.791950;
92.935829;2.791720;
92.975044;2.791377;
93.014206;2.791057;
93.053421;2.790775;
93.092628;2.790413;
93.131844;2.790115;
93.171051;2.789772;
93.210266;2.789406;
93.249474;2.788948;
93.288651;2.788496;
93.327873;2.788119;
93.367058;2.787724;
93.406273;2.787088;
93.445480;2.786610;
93.484695;2.786129;
93.523903;2.785497;
93.563080;2.784908;
93.602280;2.784248;
93.641495;2.783693;
93.680702;2.783010;
93.719910;2.782326;
93.759125;2.781636;
93.798332;2.780933;
93.837509;2.780202;
93.876709;2.779438;
93.915924;2.778619;
93.955132;2.777819;
93.994347;2.777090;
94.033554;2.776236;
94.072769;2.775499;
94.111938;2.774709;
94.151138;2.773925;
94.190353;2.773113;
94.229561;2.772269;
94.268776;2.771423;
94.307983;2.770646;
94.347198;2.769744;
94.386368;2.768919;
94.425583;2.768060;
94.464783;2.767240;
94.503998;2.766433;
94.543205;2.765535;
94.582413;2.764628;
94.621628;2.763804;
94.660805;2.762979;
94.700012;2.762088;
94.739212;2.761243;
94.778427;2.760399;
94.817635;2.759477;
94.856850;2.758617;
94.896057;2.757680;
94.935226;2.756799;
94.974442;2.755833;
95.013641;2.754866;
95.052856;2.753845;
95.092064;2.752821;
95.131279;2.751711;
95.170486;2.750714;
95.209663;2.749588;
95.248886;2.748424;
95.288086;2.747280;
95.327286;2.745910;
95.366493;2.744598;
95.405708;2.743250;
95.444916;2.741833;
95.484093;2.740368;
95.523300;2.738831;
95.562515;2.737254;
95.601715;2.735535;
95.640930;2.733787;
95.680138;2.731998;
95.719345;2.730181;
95.758522;2.728205;
95.797729;2.726257;
95.836945;2.724212;
95.876144;2.722047;
95.915359;2.719983;
95.954567;2.717785;
95.993782;2.715578;
96.032951;2.713321;
96.072166;2.711032;
96.111374;2.708768;
96.150574;2.706463;
96.189789;2.704044;
96.228996;2.701830;
96.268211;2.699414;
96.307381;2.697019;
96.346596;2.694720;
96.385803;2.692348;
96.425018;2.690030;
96.464218;2.687692;
96.503433;2.685391;
96.542641;2.683164;
96.581818;2.681024;
96.621025;2.678858;
96.660233;2.676689;
96.699448;2.674707;
96.738647;2.672750;
96.777863;2.670728;
96.817070;2.668867;
96.856247;2.667076;
96.895454;2.665303;
96.941574;2.663629;
96.973877;2.662003;
97.013077;2.660515;
97.052292;2.659068;
97.091499;2.657681;
97.130676;2.656340;
97.169899;2.655049;
97.209099;2.653884;
97.248306;2.652695;
97.287521;2.651667;
97.326721;2.650690;
97.365929;2.649701;
97.405106;2.648907;
97.444313;2.648174;
97.483528;2.647408;
97.522736;2.646788;
97.561951;2.646134;
97.601151;2.645626;
97.640366;2.645147;
97.679543;2.644754;
97.718750;2.644359;
97.757957;2.644009;
97.797165;2.643654;
97.836380;2.643469;
97.875580;2.643274;
97.914795;2.643107;
97.953964;2.643015;
97.993179;2.642957;
98.032387;2.642860;
98.071602;2.642865;
98.110809;2.642895;
98.150009;2.642951;
98.189224;2.643036;
98.228394;2.643121;
98.267609;2.643283;
98.306816;2.643485;
98.346031;2.643741;
98.385239;2.643955;
98.424454;2.644290;
98.463654;2.644645;
98.502846;2.644899;
98.542038;2.645285;
98.581245;2.645617;
98.620461;2.646041;
98.659668;2.646529;
98.698883;2.647001;
98.738083;2.647539;
98.777260;2.648069;
98.816467;2.648708;
98.855682;2.649296;
98.894890;2.650033;
98.934105;2.650816;
98.973312;2.651512;
99.012512;2.652369;
99.051689;2.653233;
99.090919;2.654010;
99.130112;2.655124;
99.169319;2.656020;
99.208534;2.656990;
99.247742;2.658198;
99.286957;2.659369;
99.326118;2.660472;
99.365326;2.661715;
99.404541;2.663043;
99.443748;2.664357;
99.482964;2.665671;
99.522171;2.667032;
99.561386;2.668430;
99.600571;2.669883;
99.639763;2.671406;
99.678970;2.672890;
99.718185;2.674366;
99.757393;2.675951;
99.796600;2.677489;
99.835815;2.679102;
99.874977;2.680560;
99.914192;2.682171;
99.953400;2.683722;
99.992615;2.685223;
100.031822;2.686733;
100.071037;2.688150;
100.110245;2.689570;
100.149422;2.690896;
100.188622;2.692319;
100.227829;2.693575;
100.267044;2.694741;
100.306252;2.695940;
100.345467;2.697032;
100.384674;2.698140;
100.423851;2.699126;
100.463051;2.700007;
100.502266;2.700884;
100.541473;2.701625;
100.580681;2.702315;
100.619896;2.702907;
100.659103;2.703438;
100.698280;2.703963;
100.737480;2.704306;
100.776695;2.704698;
100.815903;2.705001;
100.855118;2.705197;
100.894325;2.705302;
100.933540;2.705423;
100.972710;2.705493;
101.011925;2.705483;
101.051125;2.705464;
101.090332;2.705342;
101.129547;2.705281;
101.168755;2.705004;
101.207970;2.704790;
101.247139;2.704490;
101.286354;2.704260;
101.325554;2.704029;
101.364761;2.703659;
101.403976;2.703346;
101.443184;2.702982;
101.482399;2.702603;
101.521584;2.702242;
101.560783;2.701864;
101.599983;2.701524;
101.639198;2.701187;
101.678406;2.700835;
101.717621;2.700490;
101.756828;2.700158;
101.795998;2.699840;
101.835213;2.699501;
101.874413;2.699188;
101.913628;2.698910;
101.952835;2.698628;
101.992050;2.698422;
102.031258;2.698189;
102.070435;2.697960;
102.109650;2.697797;
102.148857;2.697643;
102.188057;2.697444;
102.227264;2.697328;
102.266479;2.697138;
102.305687;2.696981;
102.344864;2.696820;
102.384071;2.696749;
102.423286;2.696666;
102.462486;2.696533;
102.501701;2.696471;
102.540909;2.696311;
102.580116;2.696192;
102.619293;2.696061;
102.658501;2.695913;
102.697716;2.695740;
102.736916;2.695644;
102.776131;2.695427;
102.815338;2.695230;
102.854553;2.695087;
102.893723;2.694911;
102.932945;2.694703;
102.972145;2.694412;
103.011345;2.694146;
103.050560;2.693893;
103.089767;2.693543;
103.128983;2.693225;
103.168152;2.692881;
103.207367;2.692567;
103.246574;2.692156;
103.285789;2.691817;
103.324989;2.691344;
103.364204;2.690823;
103.403412;2.690353;
103.442596;2.689844;
103.481796;2.689414;
103.521004;2.688978;
103.560219;2.688416;
103.599419;2.687859;
103.638634;2.687372;
103.677841;2.686761;
103.717018;2.686260;
103.756226;2.685651;
103.795433;2.685169;
103.834648;2.684664;
103.873848;2.684204;
103.913063;2.683688;
103.952271;2.683170;
103.991447;2.682597;
104.030670;2.682212;
104.069870;2.681674;
104.109077;2.681301;
104.148293;2.680938;
104.187492;2.680467;
104.226700;2.680178;
104.265877;2.679815;
104.305084;2.679431;
104.344299;2.679129;
104.383507;2.678905;
104.422722;2.678576;
104.461922;2.678302;
104.501137;2.678088;
104.540306;2.677895;
104.579521;2.677629;
104.618729;2.677464;
104.657936;2.677299;
104.697151;2.677182;
104.736351;2.677005;
104.775566;2.676880;
104.814735;2.676779;
104.853951;2.676664;
104.893158;2.676528;
104.932373;2.676474;
104.971581;2.676285;
105.010780;2.676250;
105.049995;2.676155;
105.089165;2.675917;
105.128380;2.675781;
105.167587;2.675678;
105.206802;2.675439;
105.246010;2.675247;
105.285225;2.675067;
105.324425;2.674770;
105.363625;2.674510;
105.402809;2.674277;
105.442017;2.673946;
105.481232;2.673596;
105.520439;2.673205;
105.559654;2.672768;
105.598854;2.672390;
105.638031;2.672003;
105.677238;2.671560;
105.716454;2.671127;
105.755661;2.670625;
105.794868;2.670114;
105.834084;2.669542;
105.873283;2.669135;
105.912460;2.668606;
105.951691;2.668008;
105.990883;2.667489;
106.030090;2.666947;
106.069305;2.666410;
106.108513;2.665877;
106.147728;2.665334;
106.186890;2.664861;
106.226097;2.664343;
106.265312;2.663795;
106.304520;2.663295;
106.343735;2.662831;
106.382942;2.662338;
106.422157;2.661871;
106.461319;2.661413;
106.500534;2.660931;
106.539742;2.660578;
106.578957;2.660156;
106.618164;2.659799;
106.657372;2.659549;
106.696587;2.659214;
106.735748;2.658960;
106.774963;2.658614;
106.814171;2.658440;
106.853386;2.658151;
106.892593;2.657887;
106.931808;2.657763;
106.971016;2.657551;
107.010178;2.657373;
107.049393;2.657274;
107.088600;2.657114;
107.127815;2.656994;
107.167023;2.656807;
107.206238;2.656683;
107.245445;2.656563;
107.284637;2.656390;
107.323822;2.656292;
107.363037;2.656185;
107.402245;2.656063;
107.441452;2.655889;
107.480667;2.655740;
107.519875;2.655495;
107.559052;2.655275;
107.598251;2.655131;
107.637466;2.654834;
107.676674;2.654586;
107.715889;2.654361;
107.755096;2.654005;
107.794312;2.653616;
107.833481;2.653303;
107.872704;2.652959;
107.911896;2.652575;
107.951103;2.652097;
107.990318;2.651696;
108.029526;2.651267;
108.068741;2.650778;
108.107910;2.650232;
108.147125;2.649715;
108.186325;2.649187;
108.225533;2.648664;
108.264748;2.648082;
108.303955;2.647595;
108.343170;2.647018;
108.382347;2.646445;
108.421555;2.645875;
108.460754;2.645274;
108.499969;2.644691;
108.539177;2.644163;
108.578392;2.643607;
108.617599;2.643014;
108.656769;2.642510;
108.695984;2.641979;
108.735184;2.641539;
108.774399;2.641068;
108.813606;2.640552;
108.852821;2.640123;
108.892029;2.639767;
108.931206;2.639291;
108.970413;2.638952;
109.009628;2.638566;
109.048828;2.638195;
109.088036;2.637923;
109.127251;2.637676;
109.166458;2.637411;
109.205643;2.637155;
109.244843;2.636925;
109.284058;2.636676;
109.323257;2.636435;
109.362473;2.636251;
109.401680;2.636022;
109.440887;2.635828;
109.480064;2.635667;
109.519272;2.635529;
109.558487;2.635374;
109.597687;2.635194;
109.636902;2.634964;
109.676109;2.634822;
109.715324;2.634642;
109.754494;2.634445;
109.793724;2.634258;
109.832916;2.634058;
109.872116;2.633729;
109.911331;2.633523;
109.950539;2.633199;
109.989754;2.632914;
110.028923;2.632641;
110.068138;2.632302;
110.107346;2.631885;
110.146561;2.631527;
110.185760;2.631140;
110.224976;2.630707;
110.264183;2.630231;
110.303360;2.629766;
110.342567;2.629214;
110.381775;2.628702;
110.420990;2.628143;
110.460197;2.627585;
110.499413;2.626955;
110.538612;2.626458;
110.577789;2.625816;
110.616997;2.625165;
110.656204;2.624603;
110.695419;2.624018;
110.734627;2.623327;
110.773842;2.622687;
110.813042;2.622078;
110.852219;2.621489;
110.891426;2.620891;
110.930641;2.620315;
110.969849;2.619725;
111.009064;2.619255;
111.048271;2.618607;
111.087471;2.618079;
111.126648;2.617510;
111.165855;2.617029;
111.205070;2.616621;
111.244278;2.616168;
111.283493;2.615625;
111.322701;2.615251;
111.361916;2.614847;
111.401077;2.614428;
111.440292;2.614058;
111.479500;2.613695;
111.518707;2.613452;
111.557922;2.613138;
111.597130;2.612758;
111.636345;2.612571;
111.675507;2.612255;
111.714745;2.612019;
111.753929;2.611778;
111.793144;2.611488;
111.832352;2.611207;
111.871559;2.611002;
111.910774;2.610800;
111.949936;2.610536;
111.989151;2.610299;
112.028358;2.610043;
112.067574;2.609823;
112.106781;2.609521;
112.145996;2.609204;
112.185204;2.608845;
112.224388;2.608604;
112.263580;2.608300;
112.302788;2.607855;
112.342003;2.607553;
112.381210;2.607050;
112.420425;2.606654;
112.459633;2.606249;
112.498810;2.605790;
112.538010;2.605327;
112.577225;2.604761;
112.616432;2.604255;
112.655640;2.603661;
112.694855;2.603128;
112.734062;2.602535;
112.773239;2.601909;
112.812439;2.601258;
112.851654;2.600619;
112.890862;2.599956;
112.930077;2.599290;
112.969284;2.598655;
113.008499;2.597940;
113.047668;2.597288;
113.086868;2.596508;
113.126083;2.595958;
113.165291;2.595250;
113.204506;2.594622;
113.243713;2.593933;
113.282928;2.593330;
113.322098;2.592685;
113.361313;2.592035;
113.400513;2.591392;
113.439728;2.590816;
113.478935;2.590266;
113.518143;2.589694;
113.557358;2.589143;
113.596527;2.588593;
