"Piezo Voltage (V)";"Fine In 1 (V)";
77.018723;3.191152;
77.057938;3.190425;
77.097145;3.190016;
77.136360;3.189633;
77.175568;3.189231;
77.214767;3.188886;
77.253983;3.188479;
77.293159;3.188180;
77.332367;3.187780;
77.371574;3.187429;
77.410789;3.187056;
77.449997;3.186579;
77.489212;3.186164;
77.528412;3.185755;
77.567589;3.185304;
77.606796;3.184916;
77.646004;3.184442;
77.685219;3.183983;
77.724426;3.183534;
77.763641;3.182977;
77.802841;3.182514;
77.842018;3.182037;
77.881226;3.181569;
77.920441;3.181046;
77.959648;3.180497;
77.998856;3.180017;
78.038071;3.179487;
78.077271;3.178972;
78.116447;3.178410;
78.155655;3.177869;
78.194870;3.177341;
78.234077;3.176774;
78.273293;3.176243;
78.312500;3.175795;
78.351715;3.175260;
78.390892;3.174720;
78.430084;3.174184;
78.469299;3.173679;
78.508507;3.173213;
78.547722;3.172749;
78.586929;3.172169;
78.626144;3.171671;
78.665306;3.171183;
78.704521;3.170772;
78.743729;3.170356;
78.782944;3.169900;
78.822151;3.169472;
78.861359;3.169078;
78.900574;3.168664;
78.939735;3.168165;
78.978951;3.167828;
79.018158;3.167474;
79.057373;3.167079;
79.096581;3.166704;
79.135796;3.166381;
79.175003;3.166064;
79.214180;3.165724;
79.253380;3.165514;
79.292587;3.165196;
79.331802;3.164886;
79.371010;3.164586;
79.410225;3.164267;
79.449432;3.164060;
79.488609;3.163774;
79.527809;3.163551;
79.567024;3.163283;
79.606232;3.162968;
79.645439;3.162814;
79.684654;3.162470;
79.723839;3.162189;
79.763039;3.161976;
79.802238;3.161707;
79.841454;3.161513;
79.880661;3.161206;
79.919876;3.160952;
79.959084;3.160682;
79.998260;3.160406;
80.037468;3.160164;
80.076668;3.159859;
80.115883;3.159547;
80.155090;3.159149;
80.194305;3.158819;
80.233513;3.158466;
80.272690;3.158087;
80.311905;3.157730;
80.351112;3.157335;
80.390312;3.156945;
80.429520;3.156453;
80.468735;3.156079;
80.507942;3.155702;
80.547119;3.155218;
80.586327;3.154683;
80.625542;3.154276;
80.664742;3.153826;
80.703957;3.153301;
80.743164;3.152817;
80.782379;3.152269;
80.821548;3.151815;
80.860756;3.151273;
80.899971;3.150713;
80.939171;3.150116;
80.978386;3.149648;
81.017593;3.149077;
81.056808;3.148429;
81.095978;3.148023;
81.135193;3.147539;
81.174400;3.146941;
81.213615;3.146393;
81.252815;3.145904;
81.292023;3.145294;
81.331238;3.144795;
81.370407;3.144281;
81.409622;3.143813;
81.448830;3.143303;
81.488045;3.142770;
81.527245;3.142300;
81.566460;3.141856;
81.605667;3.141407;
81.644852;3.140900;
81.684052;3.140545;
81.723259;3.140115;
81.762474;3.139713;
81.801674;3.139298;
81.840889;3.138907;
81.880096;3.138517;
81.919273;3.138230;
81.958481;3.137888;
81.997696;3.137530;
82.036903;3.137238;
82.076103;3.136873;
82.115318;3.136656;
82.154526;3.136317;
82.193703;3.136021;
82.232925;3.135786;
82.272125;3.135519;
82.311333;3.135308;
82.350548;3.135016;
82.389748;3.134768;
82.428955;3.134623;
82.468132;3.134344;
82.507339;3.134155;
82.546555;3.133977;
82.585762;3.133715;
82.624977;3.133477;
82.664177;3.133331;
82.703392;3.133088;
82.742561;3.132805;
82.781776;3.132636;
82.820984;3.132290;
82.860191;3.132077;
82.899406;3.131877;
82.938606;3.131618;
82.977821;3.131320;
83.016991;3.130900;
83.056206;3.130628;
83.095413;3.130349;
83.134628;3.129946;
83.173836;3.129653;
83.213051;3.129220;
83.252251;3.128796;
83.291420;3.128476;
83.330635;3.128034;
83.369843;3.127560;
83.409058;3.127149;
83.448265;3.126683;
83.487480;3.126199;
83.526680;3.125799;
83.565880;3.125319;
83.605064;3.124820;
83.644272;3.124285;
83.683487;3.123731;
83.722694;3.123312;
83.761909;3.122808;
83.801109;3.122238;
83.840286;3.121673;
83.879494;3.121157;
83.918709;3.120685;
83.957916;3.120105;
83.997131;3.119613;
84.036339;3.119118;
84.075539;3.118514;
84.114716;3.118029;
84.153946;3.117563;
84.193138;3.117027;
84.232346;3.116534;
84.271561;3.116108;
84.310768;3.115633;
84.349983;3.115185;
84.389145;3.114709;
84.428360;3.114324;
84.467567;3.113920;
84.506775;3.113545;
84.545990;3.113140;
84.585197;3.112785;
84.624413;3.112441;
84.663589;3.112067;
84.702789;3.111751;
84.741997;3.111498;
84.781212;3.111140;
84.820419;3.110833;
84.859627;3.110592;
84.898842;3.110391;
84.938004;3.110121;
84.977219;3.109895;
85.016426;3.109688;
85.055641;3.109508;
85.094849;3.109248;
85.134064;3.109088;
85.173271;3.108839;
85.212448;3.108583;
85.251648;3.108450;
85.290855;3.108263;
85.330070;3.108142;
85.369278;3.107863;
85.408493;3.107764;
85.447701;3.107522;
85.486885;3.107273;
85.526077;3.107131;
85.565292;3.106828;
85.604500;3.106607;
85.643715;3.106362;
85.682922;3.106059;
85.722130;3.105803;
85.761307;3.105448;
85.800507;3.105136;
85.839722;3.104732;
85.878929;3.104457;
85.918144;3.104065;
85.957352;3.103746;
85.996567;3.103315;
86.035736;3.102870;
86.074959;3.102462;
86.114151;3.102001;
86.153358;3.101595;
86.192574;3.101063;
86.231781;3.100591;
86.270996;3.100034;
86.310165;3.099540;
86.349380;3.099012;
86.388580;3.098441;
86.427795;3.097866;
86.467003;3.097296;
86.506210;3.096725;
86.545425;3.096174;
86.584602;3.095586;
86.623810;3.094952;
86.663010;3.094423;
86.702225;3.093778;
86.741432;3.093226;
86.780647;3.092628;
86.819855;3.092042;
86.859032;3.091491;
86.898239;3.090918;
86.937439;3.090317;
86.976654;3.089762;
87.015862;3.089196;
87.055077;3.088651;
87.094284;3.088213;
87.133461;3.087644;
87.172668;3.087155;
87.211884;3.086679;
87.251083;3.086114;
87.290291;3.085649;
87.329506;3.085208;
87.368713;3.084793;
87.407890;3.084257;
87.447098;3.083966;
87.486313;3.083513;
87.525513;3.083099;
87.564728;3.082676;
87.603935;3.082254;
87.643150;3.081902;
87.682320;3.081535;
87.721527;3.081194;
87.760742;3.080897;
87.799942;3.080570;
87.839157;3.080201;
87.878365;3.079801;
87.917580;3.079544;
87.956749;3.079248;
87.995979;3.078854;
88.035172;3.078460;
88.074371;3.078120;
88.113586;3.077821;
88.152794;3.077492;
88.192009;3.077076;
88.231178;3.076755;
88.270393;3.076359;
88.309601;3.075959;
88.348816;3.075545;
88.388016;3.075165;
88.427231;3.074650;
88.466438;3.074221;
88.505623;3.073869;
88.544823;3.073422;
88.584030;3.072892;
88.623245;3.072444;
88.662445;3.071928;
88.701660;3.071389;
88.740868;3.070914;
88.780045;3.070343;
88.819252;3.069803;
88.858467;3.069227;
88.897675;3.068659;
88.936874;3.068140;
88.976089;3.067509;
89.015297;3.066886;
89.054474;3.066378;
89.093681;3.065790;
89.132896;3.065212;
89.172104;3.064662;
89.211319;3.063994;
89.250519;3.063412;
89.289726;3.062820;
89.328903;3.062279;
89.368111;3.061741;
89.407326;3.061095;
89.446533;3.060621;
89.485748;3.060015;
89.524948;3.059584;
89.564163;3.059004;
89.603333;3.058557;
89.642548;3.058072;
89.681755;3.057604;
89.720963;3.057148;
89.760178;3.056714;
89.799377;3.056283;
89.838593;3.055946;
89.877762;3.055527;
89.916985;3.055189;
89.956184;3.054902;
89.995399;3.054588;
90.034607;3.054214;
90.073822;3.053954;
90.113022;3.053676;
90.152191;3.053429;
90.191406;3.053176;
90.230614;3.052910;
90.269829;3.052746;
90.309036;3.052564;
90.348251;3.052358;
90.387459;3.052183;
90.426651;3.052030;
90.465836;3.051904;
90.505043;3.051732;
90.544258;3.051584;
90.583466;3.051444;
90.622681;3.051274;
90.661888;3.051104;
90.701065;3.050990;
90.740265;3.050785;
90.779480;3.050620;
90.818687;3.050572;
90.857903;3.050355;
90.897110;3.050128;
90.936317;3.049970;
90.975494;3.049776;
91.014709;3.049488;
91.053909;3.049289;
91.093117;3.049030;
91.132332;3.048828;
91.171539;3.048505;
91.210754;3.048191;
91.249924;3.047841;
91.289139;3.047563;
91.328339;3.047149;
91.367546;3.046833;
91.406761;3.046460;
91.445969;3.046074;
91.485184;3.045676;
91.524353;3.045336;
91.563568;3.044890;
91.602768;3.044450;
91.641983;3.043981;
91.681190;3.043518;
91.720398;3.042998;
91.759613;3.042547;
91.798782;3.042034;
91.837997;3.041549;
91.877197;3.041139;
91.916412;3.040529;
91.955620;3.040099;
91.994835;3.039571;
92.034042;3.039081;
92.073219;3.038603;
92.112427;3.038162;
92.151627;3.037568;
92.190842;3.037207;
92.230049;3.036728;
92.269264;3.036305;
92.308472;3.035843;
92.347664;3.035381;
92.386856;3.035033;
92.426071;3.034680;
92.465271;3.034251;
92.504478;3.033930;
92.543694;3.033545;
92.582901;3.033171;
92.622078;3.032849;
92.661285;3.032562;
92.700500;3.032282;
92.739700;3.031974;
92.778915;3.031711;
92.818123;3.031422;
92.857338;3.031171;
92.896507;3.030937;
92.935730;3.030697;
92.974930;3.030476;
93.014130;3.030187;
93.053345;3.029942;
93.092552;3.029682;
93.131767;3.029487;
93.170937;3.029118;
93.210152;3.028824;
93.249359;3.028702;
93.288574;3.028380;
93.327774;3.028102;
93.366982;3.027757;
93.406197;3.027433;
93.445366;3.027162;
93.484581;3.026827;
93.523788;3.026426;
93.563004;3.026020;
93.602203;3.025583;
93.641418;3.025171;
93.680626;3.024716;
93.719795;3.024269;
93.759010;3.023795;
93.798218;3.023266;
93.837433;3.022728;
93.876633;3.022176;
93.915848;3.021688;
93.955055;3.021101;
93.994232;3.020497;
94.033440;3.019914;
94.072655;3.019329;
94.111862;3.018715;
94.151062;3.018080;
94.190277;3.017348;
94.229485;3.016822;
94.268684;3.016114;
94.307869;3.015466;
94.347084;3.014896;
94.386292;3.014184;
94.425507;3.013562;
94.464706;3.012969;
94.503922;3.012258;
94.543091;3.011631;
94.582298;3.011016;
94.621513;3.010290;
94.660721;3.009773;
94.699936;3.009198;
94.739136;3.008612;
94.778351;3.008050;
94.817520;3.007526;
94.856758;3.006996;
94.895943;3.006444;
94.935150;3.005950;
94.974365;3.005465;
95.013565;3.004987;
95.052780;3.004549;
95.091949;3.004160;
95.131165;3.003722;
95.170372;3.003304;
95.209587;3.002895;
95.248795;3.002523;
95.288010;3.002162;
95.327209;3.001814;
95.366379;3.001531;
95.405594;3.001124;
95.444801;3.000820;
95.484016;3.000506;
95.523224;3.000154;
95.562439;2.999815;
95.601639;2.999531;
95.640816;2.999263;
95.680023;2.998857;
95.719238;2.998511;
95.758446;2.998137;
95.797653;2.997796;
95.836868;2.997410;
95.876068;2.997025;
95.915245;2.996576;
95.954453;2.996187;
95.993668;2.995757;
96.032875;2.995281;
96.072090;2.994855;
96.111298;2.994328;
96.150497;2.993755;
96.189690;2.993214;
96.228882;2.992674;
96.268097;2.992074;
96.307304;2.991553;
96.346519;2.990963;
96.385727;2.990243;
96.424942;2.989650;
96.464104;2.988959;
96.503319;2.988304;
96.542526;2.987632;
96.581734;2.986894;
96.620949;2.986095;
96.660156;2.985366;
96.699371;2.984647;
96.738533;2.983861;
96.777771;2.983099;
96.816956;2.982344;
96.856171;2.981507;
96.895378;2.980812;
96.941574;2.980020;
96.973801;2.979262;
97.012962;2.978445;
97.052177;2.977655;
97.091385;2.976883;
97.130600;2.976183;
97.169807;2.975439;
97.209023;2.974762;
97.248230;2.973956;
97.287407;2.973295;
97.326607;2.972568;
97.365822;2.971939;
97.405029;2.971305;
97.444237;2.970652;
97.483452;2.970058;
97.522659;2.969483;
97.561836;2.968879;
97.601036;2.968353;
97.640251;2.967818;
97.679459;2.967300;
97.718674;2.966735;
97.757881;2.966197;
97.797089;2.965739;
97.836266;2.965251;
97.875465;2.964780;
97.914680;2.964214;
97.953888;2.963903;
97.993103;2.963400;
98.032310;2.962948;
98.071526;2.962502;
98.110703;2.962116;
98.149910;2.961718;
98.189110;2.961237;
98.228317;2.960845;
98.267532;2.960340;
98.306740;2.959928;
98.345955;2.959538;
98.385124;2.959085;
98.424339;2.958589;
98.463539;2.958048;
98.502754;2.957513;
98.541962;2.957059;
98.581169;2.956482;
98.620384;2.955910;
98.659554;2.955342;
98.698784;2.954703;
98.737968;2.954093;
98.777184;2.953478;
98.816391;2.952890;
98.855606;2.952276;
98.894814;2.951617;
98.933990;2.950889;
98.973198;2.950203;
99.012398;2.949582;
99.051613;2.948863;
99.090820;2.948168;
99.130035;2.947483;
99.169243;2.946795;
99.208427;2.946057;
99.247627;2.945333;
99.286842;2.944684;
99.326042;2.943954;
99.365250;2.943354;
99.404465;2.942616;
99.443672;2.941946;
99.482849;2.941336;
99.522057;2.940750;
99.561272;2.940089;
99.600471;2.939599;
99.639687;2.938983;
99.678894;2.938483;
99.718109;2.937922;
99.757278;2.937397;
99.796486;2.936904;
99.835701;2.936501;
99.874901;2.936019;
99.914116;2.935650;
99.953323;2.935291;
99.992538;2.934895;
100.031708;2.934495;
100.070923;2.934186;
100.110130;2.933871;
100.149345;2.933608;
100.188545;2.933291;
100.227753;2.933035;
100.266968;2.932727;
100.306137;2.932553;
100.345352;2.932419;
100.384560;2.932174;
100.423775;2.931911;
100.462975;2.931732;
100.502190;2.931509;
100.541397;2.931412;
100.580566;2.931089;
100.619797;2.930957;
100.658989;2.930754;
100.698204;2.930571;
100.737404;2.930254;
100.776619;2.929950;
100.815826;2.929783;
100.855003;2.929472;
100.894211;2.929226;
100.933426;2.928982;
100.972633;2.928627;
101.011833;2.928163;
101.051048;2.927882;
101.090256;2.927391;
101.129456;2.926947;
101.168640;2.926590;
101.207855;2.926119;
101.247063;2.925638;
101.286278;2.925138;
101.325478;2.924653;
101.364693;2.924067;
101.403862;2.923545;
101.443069;2.923032;
101.482285;2.922371;
101.521492;2.921802;
101.560707;2.921129;
101.599907;2.920547;
101.639122;2.919887;
101.678291;2.919258;
101.717506;2.918606;
101.756714;2.918022;
101.795929;2.917423;
101.835136;2.916737;
101.874336;2.916180;
101.913551;2.915553;
101.952721;2.915037;
101.991936;2.914403;
102.031143;2.913875;
102.070358;2.913393;
102.109566;2.912729;
102.148781;2.912183;
102.187981;2.911652;
102.227150;2.911172;
102.266365;2.910706;
102.305573;2.910290;
102.344788;2.909769;
102.383995;2.909327;
102.423210;2.908980;
102.462410;2.908463;
102.501587;2.908139;
102.540802;2.907736;
102.580009;2.907400;
102.619217;2.907039;
102.658424;2.906686;
102.697639;2.906345;
102.736839;2.906028;
102.776016;2.905733;
102.815224;2.905404;
102.854439;2.905012;
102.893646;2.904689;
102.932861;2.904392;
102.972069;2.904076;
103.011269;2.903714;
103.050468;2.903306;
103.089653;2.902981;
103.128868;2.902594;
103.168076;2.902244;
103.207291;2.901741;
103.246498;2.901301;
103.285713;2.900848;
103.324875;2.900417;
103.364090;2.899929;
103.403297;2.899450;
103.442505;2.898928;
103.481720;2.898336;
103.520927;2.897767;
103.560143;2.897130;
103.599304;2.896532;
103.638535;2.895908;
103.677727;2.895338;
103.716942;2.894661;
103.756149;2.893973;
103.795357;2.893271;
103.834572;2.892635;
103.873734;2.891918;
103.912949;2.891241;
103.952156;2.890520;
103.991371;2.889790;
104.030579;2.889107;
104.069794;2.888403;
104.109001;2.887728;
104.148178;2.887015;
104.187378;2.886297;
104.226585;2.885653;
104.265800;2.885004;
104.305008;2.884235;
104.344223;2.883585;
104.383430;2.883035;
104.422607;2.882403;
104.461807;2.881809;
104.501022;2.881198;
104.540230;2.880642;
104.579445;2.880088;
104.618652;2.879557;
104.657860;2.879051;
104.697037;2.878681;
104.736237;2.878186;
104.775452;2.877777;
104.814659;2.877385;
104.853874;2.876980;
104.893082;2.876505;
104.932297;2.876150;
104.971481;2.875834;
105.010666;2.875549;
105.049881;2.875124;
105.089088;2.874817;
105.128304;2.874545;
105.167511;2.874183;
105.206726;2.873828;
105.245895;2.873600;
105.285110;2.873270;
105.324310;2.872966;
105.363525;2.872653;
105.402733;2.872309;
105.441940;2.871978;
105.481155;2.871561;
105.520325;2.871182;
105.559555;2.870797;
105.598740;2.870399;
105.637955;2.869905;
105.677162;2.869510;
105.716377;2.869033;
105.755585;2.868609;
105.794762;2.868141;
105.833969;2.867518;
105.873169;2.866960;
105.912384;2.866401;
105.951591;2.865834;
105.990807;2.865212;
106.030014;2.864627;
106.069191;2.864024;
106.108398;2.863351;
106.147614;2.862671;
106.186813;2.862052;
106.226028;2.861398;
106.265236;2.860691;
106.304443;2.860064;
106.343620;2.859391;
106.382828;2.858721;
106.422043;2.857974;
106.461243;2.857429;
106.500458;2.856735;
106.539665;2.856022;
106.578880;2.855343;
106.618050;2.854818;
106.657257;2.854174;
106.696472;2.853532;
106.735672;2.852996;
106.774887;2.852389;
106.814095;2.851837;
106.853310;2.851345;
106.892494;2.850913;
106.931694;2.850316;
106.970901;2.849918;
107.010117;2.849419;
107.049316;2.849054;
107.088524;2.848594;
107.127739;2.848210;
107.166908;2.847879;
107.206123;2.847449;
107.245331;2.847182;
107.284546;2.846941;
107.323746;2.846617;
107.362961;2.846267;
107.402168;2.845992;
107.441338;2.845742;
107.480568;2.845435;
107.519760;2.845131;
107.558975;2.844852;
107.598175;2.844570;
107.637390;2.844374;
107.676598;2.844091;
107.715775;2.843761;
107.754982;2.843474;
107.794197;2.843234;
107.833405;2.842895;
107.872604;2.842539;
107.911819;2.842129;
107.951027;2.841704;
107.990204;2.841282;
108.029411;2.840912;
108.068626;2.840627;
108.107834;2.840024;
108.147049;2.839563;
108.186249;2.838974;
108.225464;2.838513;
108.264633;2.837954;
108.303841;2.837395;
108.343056;2.836823;
108.382263;2.836235;
108.421478;2.835630;
108.460678;2.834992;
108.499893;2.834321;
108.539062;2.833733;
108.578278;2.832992;
108.617485;2.832341;
108.656693;2.831706;
108.695908;2.831039;
108.735107;2.830367;
108.774323;2.829679;
108.813499;2.829056;
108.852707;2.828479;
108.891914;2.827873;
108.931129;2.827247;
108.970337;2.826548;
109.009552;2.825972;
109.048752;2.825432;
109.087921;2.824834;
109.127136;2.824304;
109.166344;2.823792;
109.205559;2.823295;
109.244766;2.822841;
109.283981;2.822388;
109.323181;2.821956;
109.362358;2.821568;
109.401588;2.821142;
109.440773;2.820757;
109.479988;2.820522;
109.519196;2.820173;
109.558411;2.819814;
109.597610;2.819484;
109.636787;2.819286;
109.675995;2.819015;
109.715210;2.818667;
109.754417;2.818451;
109.793633;2.818149;
109.832840;2.817953;
109.872040;2.817672;
109.911232;2.817424;
109.950424;2.817143;
109.989639;2.816853;
110.028847;2.816630;
110.068062;2.816294;
110.107269;2.816015;
110.146484;2.815626;
110.185646;2.815307;
110.224861;2.814944;
110.264069;2.814574;
110.303276;2.814185;
110.342491;2.813845;
110.381699;2.813345;
110.420914;2.812978;
110.460083;2.812496;
110.499298;2.811977;
110.538498;2.811486;
110.577713;2.810921;
110.616920;2.810343;
110.656136;2.809864;
110.695343;2.809175;
110.734512;2.808595;
110.773727;2.807966;
110.812927;2.807352;
110.852142;2.806653;
110.891350;2.806046;
110.930565;2.805419;
110.969772;2.804764;
111.008949;2.804066;
111.048157;2.803462;
111.087357;2.802770;
111.126572;2.802096;
111.165779;2.801475;
111.204994;2.800969;
111.244202;2.800247;
111.283379;2.799675;
111.322601;2.799081;
111.361801;2.798573;
111.401001;2.797917;
111.440216;2.797424;
111.479424;2.796916;
111.518631;2.796343;
111.557808;2.795901;
111.597015;2.795393;
111.636230;2.794971;
111.675430;2.794467;
111.714645;2.794086;
111.753853;2.793726;
111.793068;2.793386;
111.832253;2.793052;
111.871445;2.792681;
111.910660;2.792377;
111.949860;2.792101;
111.989075;2.791762;
112.028282;2.791453;
112.067497;2.791199;
112.106667;2.790902;
112.145882;2.790580;
112.185089;2.790339;
112.224304;2.790002;
112.263504;2.789700;
112.302711;2.789432;
112.341927;2.789141;
112.381096;2.788877;
112.420311;2.788482;
112.459518;2.788172;
112.498734;2.787795;
112.537933;2.787451;
112.577148;2.787137;
112.616356;2.786611;
112.655533;2.786131;
112.694740;2.785685;
112.733948;2.785306;
112.773163;2.784693;
112.812363;2.784200;
112.851578;2.783713;
112.890785;2.783229;
112.929962;2.782624;
112.969170;2.782058;
113.008385;2.781459;
113.047592;2.780802;
113.086792;2.780186;
113.126007;2.779512;
113.165215;2.778892;
113.204391;2.778199;
113.243607;2.777566;
113.282814;2.776821;
113.322021;2.776203;
113.361237;2.775431;
113.400436;2.774826;
113.439651;2.774142;
113.478821;2.773428;
113.518028;2.772807;
113.557243;2.772099;
113.596451;2.771551;
