"Piezo Voltage (V)";"Fine In 1 (V)";
77.018837;3.185045;
77.058014;3.184437;
77.097221;3.183919;
77.136436;3.183511;
77.175644;3.183060;
77.214844;3.182587;
77.254059;3.182223;
77.293266;3.181917;
77.332443;3.181500;
77.371651;3.181114;
77.410866;3.180807;
77.450073;3.180385;
77.489288;3.180075;
77.528488;3.179730;
77.567703;3.179359;
77.606895;3.178984;
77.646080;3.178695;
77.685295;3.178360;
77.724503;3.178059;
77.763718;3.177792;
77.802917;3.177500;
77.842133;3.177182;
77.881302;3.176880;
77.920517;3.176601;
77.959724;3.176385;
77.998932;3.176075;
78.038147;3.175778;
78.077347;3.175560;
78.116562;3.175224;
78.155731;3.174917;
78.194969;3.174598;
78.234154;3.174429;
78.273369;3.174088;
78.312576;3.173795;
78.351791;3.173540;
78.390991;3.173149;
78.430161;3.172909;
78.469376;3.172514;
78.508583;3.172139;
78.547798;3.171905;
78.587006;3.171545;
78.626221;3.171171;
78.665421;3.170753;
78.704597;3.170446;
78.743805;3.170059;
78.783020;3.169691;
78.822227;3.169323;
78.861435;3.168839;
78.900650;3.168403;
78.939850;3.167974;
78.979027;3.167472;
79.018234;3.167110;
79.057449;3.166592;
79.096657;3.166181;
79.135872;3.165717;
79.175079;3.165160;
79.214279;3.164600;
79.253456;3.164128;
79.292664;3.163635;
79.331879;3.163129;
79.371086;3.162548;
79.410301;3.162007;
79.449509;3.161588;
79.488724;3.160985;
79.527901;3.160390;
79.567101;3.159803;
79.606308;3.159235;
79.645515;3.158694;
79.684731;3.158168;
79.723938;3.157658;
79.763153;3.157117;
79.802315;3.156594;
79.841530;3.156016;
79.880737;3.155496;
79.919952;3.154987;
79.959160;3.154462;
79.998367;3.154001;
80.037582;3.153515;
80.076744;3.152995;
80.115982;3.152625;
80.155167;3.152091;
80.194382;3.151698;
80.233589;3.151215;
80.272804;3.150830;
80.312012;3.150451;
80.351189;3.150048;
80.390388;3.149689;
80.429596;3.149326;
80.468811;3.148970;
80.508018;3.148548;
80.547234;3.148223;
80.586441;3.147856;
80.625618;3.147651;
80.664818;3.147369;
80.704033;3.147087;
80.743240;3.146764;
80.782455;3.146500;
80.821663;3.146250;
80.860870;3.145954;
80.900047;3.145782;
80.939247;3.145410;
80.978462;3.145243;
81.017670;3.145059;
81.056885;3.144597;
81.096092;3.144485;
81.135307;3.144265;
81.174477;3.143923;
81.213676;3.143714;
81.252892;3.143357;
81.292099;3.143106;
81.331314;3.142864;
81.370522;3.142592;
81.409737;3.142295;
81.448906;3.141931;
81.488121;3.141631;
81.527321;3.141296;
81.566536;3.140997;
81.605743;3.140664;
81.644951;3.140251;
81.684166;3.139878;
81.723335;3.139446;
81.762550;3.138997;
81.801750;3.138607;
81.840965;3.138142;
81.880173;3.137709;
81.919388;3.137301;
81.958595;3.136856;
81.997772;3.136356;
82.036995;3.135855;
82.076180;3.135307;
82.115395;3.134855;
82.154602;3.134323;
82.193817;3.133801;
82.233025;3.133260;
82.272202;3.132786;
82.311409;3.132200;
82.350624;3.131654;
82.389824;3.131060;
82.429031;3.130584;
82.468246;3.130043;
82.507454;3.129498;
82.546638;3.128985;
82.585838;3.128397;
82.625053;3.127956;
82.664253;3.127415;
82.703468;3.126814;
82.742676;3.126394;
82.781891;3.125867;
82.821060;3.125353;
82.860268;3.124882;
82.899483;3.124425;
82.938683;3.123996;
82.977898;3.123538;
83.017105;3.123135;
83.056320;3.122683;
83.095490;3.122239;
83.134705;3.121786;
83.173912;3.121427;
83.213127;3.121089;
83.252327;3.120770;
83.291534;3.120409;
83.330750;3.120087;
83.369919;3.119882;
83.409134;3.119490;
83.448341;3.119187;
83.487556;3.118822;
83.526756;3.118546;
83.565971;3.118325;
83.605179;3.118140;
83.644348;3.117839;
83.683563;3.117567;
83.722771;3.117334;
83.761986;3.117135;
83.801186;3.116819;
83.840401;3.116621;
83.879608;3.116396;
83.918785;3.116148;
83.958000;3.115956;
83.997208;3.115669;
84.036415;3.115494;
84.075615;3.115218;
84.114830;3.114995;
84.154037;3.114642;
84.193214;3.114388;
84.232422;3.114090;
84.271637;3.113816;
84.310844;3.113425;
84.350060;3.113113;
84.389259;3.112788;
84.428467;3.112472;
84.467667;3.112108;
84.506851;3.111722;
84.546066;3.111320;
84.585274;3.110885;
84.624489;3.110456;
84.663689;3.109994;
84.702904;3.109565;
84.742073;3.109035;
84.781288;3.108588;
84.820496;3.108077;
84.859703;3.107704;
84.898918;3.107034;
84.938118;3.106546;
84.977333;3.105974;
85.016502;3.105409;
85.055717;3.104924;
85.094925;3.104372;
85.134140;3.103755;
85.173347;3.103220;
85.212563;3.102661;
85.251762;3.102130;
85.290932;3.101547;
85.330147;3.101029;
85.369354;3.100456;
85.408569;3.099924;
85.447777;3.099324;
85.486992;3.098845;
85.526192;3.098328;
85.565369;3.097787;
85.604576;3.097271;
85.643784;3.096761;
85.682999;3.096254;
85.722206;3.095779;
85.761421;3.095283;
85.800621;3.094776;
85.839798;3.094322;
85.879005;3.093882;
85.918221;3.093396;
85.957428;3.092935;
85.996643;3.092495;
86.035851;3.091958;
86.075050;3.091637;
86.114227;3.091191;
86.153435;3.090662;
86.192650;3.090205;
86.231857;3.089805;
86.271072;3.089364;
86.310280;3.088830;
86.349495;3.088432;
86.388680;3.087899;
86.427872;3.087376;
86.467079;3.086842;
86.506287;3.086296;
86.545502;3.085673;
86.584709;3.085072;
86.623924;3.084372;
86.663086;3.083790;
86.702301;3.083011;
86.741508;3.082255;
86.780724;3.081590;
86.819931;3.080700;
86.859138;3.079822;
86.898354;3.078887;
86.937515;3.077989;
86.976746;3.076893;
87.015938;3.075899;
87.055153;3.074663;
87.094360;3.073533;
87.133575;3.072395;
87.172783;3.071174;
87.211960;3.069799;
87.251160;3.068420;
87.290367;3.067116;
87.329582;3.065650;
87.368790;3.064200;
87.408005;3.062588;
87.447212;3.061155;
87.486389;3.059545;
87.525589;3.057886;
87.564804;3.056268;
87.604012;3.054615;
87.643227;3.052980;
87.682434;3.051320;
87.721642;3.049624;
87.760818;3.047999;
87.800018;3.046293;
87.839233;3.044575;
87.878441;3.042933;
87.917656;3.041165;
87.956863;3.039545;
87.996078;3.037978;
88.035248;3.036199;
88.074448;3.034647;
88.113663;3.033130;
88.152870;3.031597;
88.192085;3.029920;
88.231293;3.028489;
88.270508;3.027087;
88.309692;3.025517;
88.348892;3.024099;
88.388092;3.022749;
88.427307;3.021426;
88.466515;3.020155;
88.505722;3.018889;
88.544937;3.017653;
88.584106;3.016424;
88.623322;3.015382;
88.662521;3.014300;
88.701736;3.013235;
88.740944;3.012247;
88.780159;3.011296;
88.819366;3.010390;
88.858543;3.009560;
88.897766;3.008670;
88.936951;3.007897;
88.976166;3.007143;
89.015373;3.006326;
89.054588;3.005657;
89.093796;3.005011;
89.132973;3.004342;
89.172180;3.003769;
89.211395;3.003122;
89.250595;3.002599;
89.289803;3.002096;
89.329018;3.001569;
89.368225;3.001062;
89.407402;3.000641;
89.446609;3.000165;
89.485825;2.999693;
89.525024;2.999326;
89.564240;2.998905;
89.603447;2.998463;
89.642662;2.998095;
89.681831;2.997716;
89.721039;2.997374;
89.760254;2.997032;
89.799454;2.996674;
89.838669;2.996323;
89.877876;2.996012;
89.917091;2.995649;
89.956261;2.995361;
89.995476;2.995090;
90.034683;2.994853;
90.073883;2.994628;
90.113098;2.994440;
90.152306;2.994145;
90.191521;2.994056;
90.230698;2.993860;
90.269905;2.993642;
90.309113;2.993547;
90.348328;2.993466;
90.387535;2.993477;
90.426750;2.993459;
90.465950;2.993378;
90.505119;2.993361;
90.544334;2.993404;
90.583542;2.993525;
90.622757;2.993656;
90.661964;2.993870;
90.701180;2.994057;
90.740379;2.994315;
90.779556;2.994596;
90.818787;2.994999;
90.857979;2.995386;
90.897186;2.995835;
90.936394;2.996330;
90.975609;2.996881;
91.014809;2.997497;
91.053986;2.998016;
91.093193;2.998754;
91.132408;2.999478;
91.171616;3.000186;
91.210831;3.000958;
91.250038;3.001888;
91.289238;3.002660;
91.328415;3.003537;
91.367622;3.004416;
91.406837;3.005405;
91.446045;3.006307;
91.485260;3.007234;
91.524467;3.008183;
91.563683;3.009176;
91.602844;3.010103;
91.642059;3.011142;
91.681267;3.012096;
91.720474;3.013042;
91.759689;3.014029;
91.798897;3.014879;
91.838112;3.015842;
91.877274;3.016671;
91.916489;3.017494;
91.955696;3.018269;
91.994911;3.019012;
92.034119;3.019786;
92.073334;3.020433;
92.112541;3.021013;
92.151703;3.021516;
92.190918;3.022009;
92.230125;3.022476;
92.269341;3.022884;
92.308548;3.023296;
92.347763;3.023552;
92.386971;3.023866;
92.426147;3.024090;
92.465347;3.024153;
92.504555;3.024273;
92.543770;3.024374;
92.582977;3.024352;
92.622192;3.024371;
92.661400;3.024346;
92.700577;3.024307;
92.739799;3.024112;
92.778992;3.024008;
92.818199;3.023816;
92.857414;3.023678;
92.896622;3.023417;
92.935829;3.023177;
92.975006;3.022964;
93.014206;3.022655;
93.053421;3.022379;
93.092628;3.022069;
93.131844;3.021784;
93.171051;3.021392;
93.210266;3.021107;
93.249443;3.020841;
93.288651;3.020457;
93.327850;3.020137;
93.367058;3.019792;
93.406273;3.019490;
93.445480;3.019177;
93.484695;3.018909;
93.523865;3.018529;
93.563080;3.018310;
93.602280;3.017962;
93.641495;3.017677;
93.680702;3.017429;
93.719910;3.017261;
93.759125;3.017058;
93.798294;3.016770;
93.837509;3.016550;
93.876709;3.016272;
93.915924;3.016014;
93.955132;3.015785;
93.994347;3.015563;
94.033554;3.015399;
94.072739;3.015126;
94.111938;3.015002;
94.151138;3.014710;
94.190353;3.014521;
94.229561;3.014249;
94.268776;3.014039;
94.307983;3.013842;
94.347160;3.013609;
94.386368;3.013348;
94.425583;3.013079;
94.464783;3.012748;
94.503998;3.012467;
94.543205;3.012218;
94.582413;3.011828;
94.621590;3.011458;
94.660805;3.011090;
94.700012;3.010732;
94.739212;3.010266;
94.778427;3.009854;
94.817635;3.009401;
94.856850;3.008900;
94.896019;3.008368;
94.935226;3.007868;
94.974442;3.007256;
95.013641;3.006650;
95.052856;3.006126;
95.092064;3.005440;
95.131279;3.004832;
95.170464;3.004073;
95.209663;3.003412;
95.248871;3.002720;
95.288086;3.001921;
95.327286;3.001164;
95.366493;3.000427;
95.405708;2.999670;
95.444878;2.998863;
95.484093;2.998053;
95.523300;2.997244;
95.562515;2.996408;
95.601715;2.995615;
95.640930;2.994766;
95.680138;2.993901;
95.719307;2.993076;
95.758522;2.992260;
95.797729;2.991550;
95.836945;2.990647;
95.876144;2.989785;
95.915359;2.988969;
95.954567;2.988124;
95.993744;2.987335;
96.032951;2.986477;
96.072166;2.985629;
96.111374;2.984834;
96.150574;2.984029;
96.189789;2.983279;
96.228996;2.982387;
96.268173;2.981617;
96.307381;2.980756;
96.346596;2.979927;
96.385803;2.979100;
96.425018;2.978225;
96.464218;2.977337;
96.503433;2.976453;
96.542603;2.975549;
96.581818;2.974727;
96.621025;2.973747;
96.660233;2.972687;
96.699448;2.971762;
96.738647;2.970772;
96.777863;2.969650;
96.817032;2.968563;
96.856247;2.967417;
96.895454;2.966257;
96.941574;2.965032;
96.973877;2.963697;
97.013077;2.962389;
97.052292;2.961087;
97.091484;2.959692;
97.130676;2.958170;
97.169884;2.956674;
97.209099;2.955140;
97.248306;2.953613;
97.287521;2.951906;
97.326721;2.950245;
97.365891;2.948569;
97.405106;2.946842;
97.444313;2.945119;
97.483528;2.943350;
97.522736;2.941554;
97.561951;2.939691;
97.601151;2.937897;
97.640327;2.936043;
97.679543;2.934148;
97.718750;2.932276;
97.757957;2.930418;
97.797165;2.928546;
97.836380;2.926746;
97.875580;2.924850;
97.914757;2.923047;
97.953964;2.921358;
97.993179;2.919534;
98.032387;2.917806;
98.071602;2.916206;
98.110809;2.914504;
98.150009;2.912964;
98.189186;2.911440;
98.228394;2.909932;
98.267609;2.908392;
98.306816;2.907022;
98.346031;2.905579;
98.385239;2.904346;
98.424454;2.903097;
98.463615;2.901972;
98.502846;2.900785;
98.542038;2.899740;
98.581245;2.898717;
98.620461;2.897778;
98.659668;2.896893;
98.698883;2.896011;
98.738045;2.895185;
98.777260;2.894415;
98.816467;2.893766;
98.855682;2.893155;
98.894890;2.892468;
98.934105;2.891917;
98.973312;2.891407;
99.012497;2.890953;
99.051689;2.890465;
99.090897;2.890040;
99.130112;2.889664;
99.169319;2.889339;
99.208534;2.888997;
99.247742;2.888656;
99.286919;2.888401;
99.326118;2.888283;
99.365326;2.887991;
99.404541;2.887763;
99.443748;2.887557;
99.482964;2.887338;
99.522171;2.887313;
99.561348;2.887099;
99.600571;2.887060;
99.639763;2.886928;
99.678970;2.886802;
99.718185;2.886790;
99.757393;2.886590;
99.796600;2.886595;
99.835777;2.886617;
99.874977;2.886588;
99.914192;2.886562;
99.953400;2.886591;
99.992615;2.886631;
100.031822;2.886583;
100.071037;2.886610;
100.110207;2.886690;
100.149422;2.886829;
100.188622;2.886932;
100.227829;2.887145;
100.267044;2.887260;
100.306252;2.887554;
100.345467;2.887865;
100.384636;2.888151;
100.423851;2.888376;
100.463051;2.888696;
100.502266;2.889045;
100.541473;2.889437;
100.580681;2.889946;
100.619896;2.890429;
100.659065;2.890877;
100.698280;2.891459;
100.737480;2.891980;
100.776695;2.892557;
100.815903;2.893224;
100.855118;2.893972;
100.894325;2.894617;
100.933517;2.895312;
100.972710;2.896098;
101.011909;2.896857;
101.051125;2.897738;
101.090332;2.898565;
101.129547;2.899390;
101.168755;2.900213;
101.207932;2.901106;
101.247139;2.901896;
101.286354;2.902678;
101.325554;2.903598;
101.364761;2.904334;
101.403976;2.905177;
101.443184;2.905905;
101.482361;2.906622;
101.521584;2.907340;
101.560783;2.907945;
101.599983;2.908609;
101.639198;2.909145;
101.678406;2.909773;
101.717621;2.910287;
101.756790;2.910751;
101.795998;2.911211;
101.835213;2.911547;
101.874413;2.911851;
101.913628;2.912129;
101.952835;2.912335;
101.992050;2.912434;
102.031219;2.912585;
102.070435;2.912621;
102.109642;2.912580;
102.148857;2.912446;
102.188057;2.912323;
102.227264;2.912207;
102.266479;2.911907;
102.305649;2.911680;
102.344864;2.911420;
102.384071;2.911019;
102.423286;2.910634;
102.462486;2.910204;
102.501701;2.909757;
102.540909;2.909251;
102.580078;2.908767;
102.619293;2.908322;
102.658501;2.907702;
102.697716;2.907139;
102.736916;2.906546;
102.776131;2.905958;
102.815338;2.905367;
102.854538;2.904774;
102.893723;2.904177;
102.932938;2.903658;
102.972145;2.903027;
103.011345;2.902513;
103.050560;2.901910;
103.089767;2.901377;
103.128944;2.900778;
103.168152;2.900234;
103.207367;2.899732;
103.246574;2.899262;
103.285789;2.898775;
103.324989;2.898274;
103.364204;2.897758;
103.403374;2.897299;
103.442596;2.896844;
103.481796;2.896403;
103.521004;2.896046;
103.560219;2.895690;
103.599419;2.895338;
103.638634;2.894930;
103.677803;2.894565;
103.717018;2.894313;
103.756226;2.893944;
103.795433;2.893591;
103.834648;2.893292;
103.873848;2.893028;
103.913063;2.892643;
103.952240;2.892443;
103.991447;2.892111;
104.030655;2.891845;
104.069870;2.891490;
104.109077;2.891275;
104.148293;2.890900;
104.187492;2.890582;
104.226662;2.890235;
104.265877;2.889820;
104.305084;2.889438;
104.344299;2.889095;
104.383507;2.888643;
104.422722;2.888316;
104.461922;2.887812;
104.501099;2.887292;
104.540306;2.886810;
104.579521;2.886338;
104.618729;2.885796;
104.657936;2.885242;
104.697151;2.884702;
104.736351;2.884085;
104.775543;2.883461;
104.814735;2.882842;
104.853951;2.882178;
104.893158;2.881619;
104.932373;2.880966;
104.971581;2.880266;
105.010780;2.879527;
105.049957;2.878864;
105.089165;2.878080;
105.128380;2.877446;
105.167587;2.876710;
105.206802;2.876054;
105.246010;2.875514;
105.285225;2.874758;
105.324387;2.874058;
105.363625;2.873431;
105.402809;2.872889;
105.442017;2.872248;
105.481232;2.871548;
105.520439;2.871018;
105.559654;2.870427;
105.598816;2.869888;
105.638031;2.869319;
105.677238;2.868845;
105.716454;2.868388;
105.755661;2.867883;
105.794868;2.867503;
105.834084;2.867029;
105.873268;2.866575;
105.912460;2.866207;
105.951668;2.865847;
105.990883;2.865556;
106.030090;2.865242;
106.069305;2.864907;
106.108513;2.864512;
106.147690;2.864190;
106.186890;2.863871;
106.226097;2.863560;
106.265312;2.863249;
106.304520;2.863015;
106.343735;2.862711;
106.382942;2.862369;
106.422119;2.862076;
106.461319;2.861831;
106.500534;2.861454;
106.539742;2.861133;
106.578957;2.860769;
106.618164;2.860444;
106.657372;2.860109;
106.696548;2.859617;
106.735748;2.859262;
106.774963;2.858899;
106.814171;2.858377;
106.853386;2.857975;
106.892593;2.857470;
106.931808;2.857026;
106.970978;2.856486;
107.010178;2.855903;
107.049393;2.855380;
107.088600;2.854867;
107.127815;2.854183;
107.167023;2.853606;
107.206238;2.853012;
107.245407;2.852374;
107.284622;2.851722;
107.323822;2.851076;
107.363037;2.850519;
107.402245;2.849819;
107.441452;2.849131;
107.480667;2.848576;
107.519836;2.847916;
107.559052;2.847172;
107.598251;2.846574;
107.637466;2.845836;
107.676674;2.845236;
107.715889;2.844605;
107.755096;2.844040;
107.794289;2.843493;
107.833481;2.842916;
107.872681;2.842316;
107.911896;2.841886;
107.951103;2.841250;
107.990318;2.840737;
108.029526;2.840317;
108.068703;2.839921;
108.107910;2.839445;
108.147125;2.839104;
108.186325;2.838753;
108.225533;2.838313;
108.264748;2.837985;
108.303955;2.837635;
108.343132;2.837371;
108.382339;2.837039;
108.421555;2.836734;
108.460754;2.836543;
108.499969;2.836245;
108.539177;2.836049;
108.578392;2.835767;
108.617561;2.835565;
108.656769;2.835345;
108.695984;2.835048;
108.735184;2.834817;
108.774399;2.834567;
108.813606;2.834331;
108.852821;2.834077;
108.891991;2.833710;
108.931206;2.833427;
108.970413;2.833101;
109.009628;2.832800;
109.048828;2.832386;
109.088036;2.832074;
109.127251;2.831596;
109.166420;2.831207;
109.205635;2.830710;
109.244843;2.830261;
109.284058;2.829849;
109.323257;2.829272;
109.362473;2.828741;
109.401680;2.828212;
109.440849;2.827621;
109.480064;2.827055;
109.519272;2.826385;
109.558487;2.825850;
109.597687;2.825257;
109.636902;2.824613;
109.676109;2.824019;
109.715309;2.823422;
109.754494;2.822779;
109.793709;2.822090;
109.832916;2.821510;
109.872116;2.820837;
109.911331;2.820187;
109.950539;2.819674;
109.989716;2.819069;
110.028923;2.818555;
110.068138;2.817883;
110.107346;2.817317;
110.146561;2.816836;
110.185760;2.816251;
110.224976;2.815744;
110.264145;2.815301;
110.303352;2.814891;
110.342567;2.814403;
110.381775;2.813915;
110.420990;2.813570;
110.460197;2.813180;
110.499413;2.812756;
110.538574;2.812414;
110.577789;2.812078;
110.616997;2.811785;
110.656204;2.811512;
110.695419;2.811226;
110.734627;2.810937;
110.773842;2.810651;
110.813004;2.810352;
110.852219;2.810203;
110.891426;2.809922;
110.930641;2.809660;
110.969849;2.809476;
111.009064;2.809293;
111.048271;2.808991;
111.087433;2.808748;
111.126648;2.808539;
111.165855;2.808214;
111.205070;2.807936;
111.244278;2.807639;
111.283493;2.807215;
111.322701;2.806961;
111.361877;2.806651;
111.401077;2.806246;
111.440292;2.805863;
111.479500;2.805459;
111.518707;2.804938;
111.557922;2.804563;
111.597130;2.804003;
111.636322;2.803568;
111.675507;2.803039;
111.714722;2.802458;
111.753929;2.801918;
111.793144;2.801355;
111.832352;2.800781;
111.871559;2.800208;
111.910736;2.799536;
111.949936;2.798904;
111.989151;2.798325;
112.028358;2.797696;
112.067574;2.797025;
112.106781;2.796368;
112.145996;2.795723;
112.185165;2.795109;
112.224380;2.794425;
112.263580;2.793867;
112.302788;2.793200;
112.342003;2.792618;
112.381210;2.792003;
112.420425;2.791426;
112.459595;2.790875;
112.498810;2.790328;
112.538010;2.789776;
112.577225;2.789290;
112.616432;2.788743;
112.655640;2.788317;
112.694855;2.787821;
112.734024;2.787479;
112.773239;2.787050;
112.812439;2.786643;
112.851654;2.786282;
112.890862;2.785878;
112.930077;2.785541;
112.969284;2.785239;
113.008461;2.784912;
113.047668;2.784623;
113.086868;2.784357;
113.126083;2.784094;
113.165291;2.783877;
113.204506;2.783606;
113.243713;2.783360;
113.282890;2.783048;
113.322098;2.782840;
113.361313;2.782583;
113.400513;2.782277;
113.439728;2.782053;
113.478935;2.781613;
113.518143;2.781420;
113.557335;2.781063;
113.596527;2.780717;
