"Piezo Voltage (V)";"Fine In 1 (V)";
77.018837;2.914804;
77.058052;2.914289;
77.097260;2.913753;
77.136475;2.913393;
77.175644;2.912994;
77.214844;2.912458;
77.254059;2.912124;
77.293266;2.911717;
77.332481;2.911252;
77.371689;2.910799;
77.410904;2.910426;
77.450073;2.909950;
77.489288;2.909497;
77.528488;2.909070;
77.567703;2.908628;
77.606911;2.908157;
77.646118;2.907776;
77.685333;2.907325;
77.724503;2.906798;
77.763718;2.906343;
77.802917;2.905907;
77.842133;2.905506;
77.881340;2.905023;
77.920555;2.904593;
77.959763;2.904205;
77.998932;2.903711;
78.038147;2.903373;
78.077347;2.902993;
78.116562;2.902580;
78.155769;2.902110;
78.194984;2.901762;
78.234192;2.901421;
78.273384;2.901043;
78.312576;2.900746;
78.351791;2.900377;
78.390991;2.900053;
78.430199;2.899793;
78.469414;2.899475;
78.508621;2.899117;
78.547798;2.898954;
78.587006;2.898739;
78.626221;2.898452;
78.665421;2.898185;
78.704636;2.897954;
78.743843;2.897779;
78.783051;2.897570;
78.822227;2.897320;
78.861450;2.897200;
78.900650;2.896983;
78.939850;2.896812;
78.979065;2.896558;
79.018272;2.896445;
79.057487;2.896228;
79.096657;2.896089;
79.135872;2.895877;
79.175079;2.895744;
79.214279;2.895628;
79.253494;2.895389;
79.292702;2.895212;
79.331917;2.894994;
79.371086;2.894824;
79.410301;2.894678;
79.449509;2.894427;
79.488724;2.894265;
79.527924;2.894027;
79.567139;2.893806;
79.606346;2.893478;
79.645515;2.893196;
79.684731;2.892962;
79.723938;2.892755;
79.763153;2.892473;
79.802353;2.892144;
79.841568;2.891817;
79.880775;2.891437;
79.919952;2.891126;
79.959160;2.890712;
79.998367;2.890417;
80.037582;2.889996;
80.076782;2.889584;
80.115997;2.889147;
80.155205;2.888744;
80.194405;2.888348;
80.233589;2.887885;
80.272804;2.887466;
80.312012;2.887039;
80.351227;2.886627;
80.390427;2.886150;
80.429634;2.885651;
80.468811;2.885213;
80.508018;2.884730;
80.547234;2.884285;
80.586441;2.883801;
80.625656;2.883343;
80.664856;2.882881;
80.704071;2.882430;
80.743240;2.881947;
80.782478;2.881502;
80.821663;2.881059;
80.860870;2.880657;
80.900085;2.880255;
80.939285;2.879884;
80.978500;2.879479;
81.017670;2.879048;
81.056885;2.878621;
81.096092;2.878259;
81.135307;2.877888;
81.174515;2.877520;
81.213715;2.877180;
81.252930;2.876809;
81.292099;2.876476;
81.331314;2.876222;
81.370522;2.875913;
81.409737;2.875684;
81.448944;2.875463;
81.488159;2.875211;
81.527359;2.874948;
81.566536;2.874714;
81.605743;2.874455;
81.644951;2.874247;
81.684166;2.874106;
81.723373;2.873867;
81.762589;2.873708;
81.801788;2.873545;
81.840965;2.873343;
81.880173;2.873134;
81.919388;2.873006;
81.958595;2.872844;
81.997810;2.872635;
82.037018;2.872498;
82.076218;2.872332;
82.115410;2.872199;
82.154602;2.871994;
82.193817;2.871837;
82.233025;2.871656;
82.272240;2.871426;
82.311447;2.871267;
82.350662;2.871063;
82.389824;2.870833;
82.429031;2.870561;
82.468246;2.870326;
82.507454;2.870008;
82.546669;2.869792;
82.585876;2.869462;
82.625092;2.869155;
82.664253;2.868916;
82.703491;2.868600;
82.742676;2.868190;
82.781891;2.867964;
82.821098;2.867507;
82.860306;2.867200;
82.899521;2.866769;
82.938683;2.866414;
82.977898;2.866008;
83.017105;2.865525;
83.056320;2.865103;
83.095528;2.864691;
83.134743;2.864260;
83.173950;2.863757;
83.213127;2.863251;
83.252327;2.862835;
83.291534;2.862289;
83.330750;2.861811;
83.369957;2.861322;
83.409172;2.860825;
83.448380;2.860359;
83.487556;2.859835;
83.526756;2.859318;
83.565971;2.858842;
83.605179;2.858405;
83.644386;2.857915;
83.683601;2.857496;
83.722809;2.857037;
83.761986;2.856562;
83.801186;2.856188;
83.840401;2.855811;
83.879608;2.855382;
83.918823;2.854879;
83.958031;2.854521;
83.997246;2.854113;
84.036415;2.853754;
84.075615;2.853433;
84.114830;2.853072;
84.154037;2.852839;
84.193253;2.852490;
84.232460;2.852145;
84.271675;2.851894;
84.310844;2.851625;
84.350060;2.851400;
84.389259;2.851107;
84.428467;2.850886;
84.467682;2.850599;
84.506889;2.850372;
84.546104;2.850214;
84.585274;2.850015;
84.624504;2.849768;
84.663689;2.849517;
84.702904;2.849331;
84.742111;2.849218;
84.781326;2.848993;
84.820534;2.848701;
84.859703;2.848485;
84.898918;2.848250;
84.938118;2.848056;
84.977333;2.847721;
85.016541;2.847458;
85.055756;2.847204;
85.094963;2.846962;
85.134148;2.846647;
85.173347;2.846368;
85.212563;2.846003;
85.251762;2.845606;
85.290970;2.845211;
85.330185;2.844799;
85.369392;2.844403;
85.408569;2.843949;
85.447777;2.843475;
85.486992;2.842967;
85.526192;2.842365;
85.565407;2.841865;
85.604614;2.841311;
85.643822;2.840729;
85.682999;2.840163;
85.722206;2.839470;
85.761421;2.838793;
85.800621;2.838121;
85.839836;2.837419;
85.879044;2.836700;
85.918259;2.836013;
85.957428;2.835219;
85.996643;2.834551;
86.035851;2.833799;
86.075050;2.833037;
86.114265;2.832272;
86.153473;2.831522;
86.192688;2.830804;
86.231857;2.830003;
86.271072;2.829282;
86.310280;2.828530;
86.349495;2.827760;
86.388695;2.827143;
86.427910;2.826398;
86.467117;2.825712;
86.506287;2.825034;
86.545509;2.824406;
86.584709;2.823711;
86.623924;2.823074;
86.663124;2.822469;
86.702339;2.821879;
86.741547;2.821332;
86.780724;2.820746;
86.819931;2.820216;
86.859138;2.819763;
86.898354;2.819293;
86.937553;2.818976;
86.976768;2.818312;
87.015976;2.817921;
87.055176;2.817569;
87.094360;2.817144;
87.133575;2.816694;
87.172783;2.816414;
87.211998;2.816040;
87.251198;2.815745;
87.290405;2.815361;
87.329582;2.815111;
87.368790;2.814859;
87.408005;2.814547;
87.447212;2.814258;
87.486427;2.814013;
87.525627;2.813716;
87.564842;2.813483;
87.604012;2.813185;
87.643227;2.812927;
87.682434;2.812717;
87.721642;2.812365;
87.760857;2.812045;
87.800056;2.811769;
87.839272;2.811446;
87.878441;2.811149;
87.917656;2.810781;
87.956863;2.810491;
87.996078;2.810169;
88.035286;2.809745;
88.074486;2.809323;
88.113701;2.808957;
88.152870;2.808487;
88.192085;2.808054;
88.231293;2.807571;
88.270508;2.807136;
88.309715;2.806683;
88.348930;2.806147;
88.388130;2.805696;
88.427307;2.805183;
88.466522;2.804659;
88.505722;2.804018;
88.544937;2.803445;
88.584145;2.802984;
88.623360;2.802379;
88.662560;2.801755;
88.701736;2.801151;
88.740944;2.800525;
88.780159;2.799900;
88.819366;2.799363;
88.858574;2.798755;
88.897789;2.798197;
88.936989;2.797573;
88.976189;2.796924;
89.015373;2.796296;
89.054588;2.795770;
89.093796;2.795184;
89.133011;2.794610;
89.172218;2.793944;
89.211433;2.793356;
89.250595;2.792945;
89.289803;2.792352;
89.329018;2.791771;
89.368225;2.791302;
89.407440;2.790826;
89.446648;2.790229;
89.485863;2.789831;
89.525024;2.789235;
89.564255;2.788856;
89.603447;2.788399;
89.642662;2.787895;
89.681870;2.787571;
89.721077;2.787135;
89.760292;2.786797;
89.799454;2.786379;
89.838669;2.786034;
89.877876;2.785684;
89.917091;2.785275;
89.956299;2.785042;
89.995514;2.784558;
90.034721;2.784312;
90.073883;2.784018;
90.113098;2.783737;
90.152306;2.783437;
90.191521;2.783139;
90.230728;2.782917;
90.269943;2.782616;
90.309151;2.782308;
90.348328;2.782073;
90.387535;2.781849;
90.426750;2.781588;
90.465950;2.781294;
90.505157;2.781026;
90.544373;2.780802;
90.583580;2.780464;
90.622757;2.780140;
90.661964;2.779799;
90.701180;2.779533;
90.740379;2.779263;
90.779594;2.778895;
90.818802;2.778557;
90.858017;2.778169;
90.897202;2.777866;
90.936394;2.777488;
90.975609;2.777141;
91.014809;2.776785;
91.054024;2.776361;
91.093231;2.776080;
91.132446;2.775602;
91.171616;2.775240;
91.210831;2.774819;
91.250038;2.774455;
91.289238;2.774035;
91.328453;2.773668;
91.367661;2.773387;
91.406876;2.773024;
91.446045;2.772668;
91.485275;2.772325;
91.524467;2.772022;
91.563683;2.771709;
91.602882;2.771432;
91.642097;2.771236;
91.681305;2.771046;
91.720474;2.770802;
91.759689;2.770591;
91.798897;2.770413;
91.838112;2.770216;
91.877312;2.770082;
91.916527;2.770052;
91.955734;2.769948;
91.994911;2.769827;
92.034119;2.769827;
92.073334;2.769669;
92.112541;2.769716;
92.151741;2.769749;
92.190956;2.769639;
92.230164;2.769730;
92.269341;2.769679;
92.308548;2.769692;
92.347763;2.769705;
92.386971;2.769802;
92.426186;2.769762;
92.465385;2.769858;
92.504593;2.769823;
92.543770;2.769848;
92.582977;2.769896;
92.622192;2.769869;
92.661400;2.769798;
92.700615;2.769774;
92.739815;2.769695;
92.779030;2.769686;
92.818222;2.769573;
92.857414;2.769429;
92.896622;2.769305;
92.935829;2.769138;
92.975044;2.768883;
93.014244;2.768648;
93.053459;2.768371;
93.092628;2.768054;
93.131844;2.767781;
93.171051;2.767447;
93.210266;2.767055;
93.249474;2.766662;
93.288689;2.766245;
93.327888;2.765713;
93.367058;2.765261;
93.406296;2.764788;
93.445480;2.764181;
93.484695;2.763565;
93.523903;2.763000;
93.563118;2.762357;
93.602318;2.761751;
93.641495;2.761032;
93.680702;2.760356;
93.719910;2.759597;
93.759125;2.758912;
93.798332;2.758156;
93.837547;2.757342;
93.876747;2.756673;
93.915924;2.755797;
93.955132;2.755015;
93.994347;2.754180;
94.033554;2.753440;
94.072769;2.752607;
94.111977;2.751770;
94.151176;2.750964;
94.190353;2.750129;
94.229561;2.749311;
94.268776;2.748442;
94.307983;2.747551;
94.347198;2.746739;
94.386406;2.745785;
94.425621;2.744948;
94.464783;2.744044;
94.503998;2.743136;
94.543205;2.742249;
94.582413;2.741279;
94.621628;2.740317;
94.660835;2.739378;
94.700050;2.738452;
94.739227;2.737449;
94.778427;2.736357;
94.817635;2.735380;
94.856850;2.734274;
94.896057;2.733179;
94.935265;2.732030;
94.974480;2.730851;
95.013641;2.729582;
95.052856;2.728306;
95.092064;2.726984;
95.131279;2.725563;
95.170486;2.724103;
95.209702;2.722562;
95.248909;2.720949;
95.288086;2.719291;
95.327309;2.717535;
95.366493;2.715698;
95.405708;2.713781;
95.444916;2.711790;
95.484131;2.709672;
95.523338;2.707433;
95.562515;2.705145;
95.601715;2.702722;
95.640930;2.700191;
95.680138;2.697569;
95.719345;2.694896;
95.758560;2.692007;
95.797768;2.689054;
95.836952;2.685975;
95.876144;2.682845;
95.915359;2.679706;
95.954567;2.676269;
95.993782;2.672816;
96.032990;2.669303;
96.072205;2.665685;
96.111374;2.662083;
96.150574;2.658330;
96.189789;2.654586;
96.228996;2.650778;
96.268211;2.646873;
96.307419;2.643046;
96.346634;2.639122;
96.385803;2.635238;
96.425018;2.631402;
96.464218;2.627449;
96.503433;2.623577;
96.542641;2.619680;
96.581848;2.615771;
96.621063;2.611951;
96.660233;2.608101;
96.699448;2.604364;
96.738647;2.600759;
96.777863;2.597150;
96.817070;2.593605;
96.856285;2.590150;
96.895493;2.586762;
96.941574;2.583463;
96.973877;2.580156;
97.013077;2.577163;
97.052292;2.574278;
97.091499;2.571419;
97.130714;2.568584;
97.169922;2.565982;
97.209099;2.563437;
97.248322;2.561097;
97.287521;2.558755;
97.326721;2.556579;
97.365929;2.554485;
97.405144;2.552400;
97.444351;2.550589;
97.483528;2.548756;
97.522736;2.547096;
97.561951;2.545484;
97.601151;2.544046;
97.640366;2.542633;
97.679573;2.541393;
97.718788;2.540150;
97.757973;2.539029;
97.797165;2.538052;
97.836380;2.537080;
97.875580;2.536305;
97.914795;2.535521;
97.954002;2.534800;
97.993217;2.534121;
98.032387;2.533608;
98.071602;2.533134;
98.110809;2.532779;
98.150009;2.532459;
98.189224;2.532178;
98.228432;2.532048;
98.267647;2.531918;
98.306816;2.531904;
98.346031;2.531891;
98.385239;2.532132;
98.424454;2.532240;
98.463654;2.532481;
98.502869;2.532856;
98.542076;2.533261;
98.581245;2.533794;
98.620461;2.534410;
98.659668;2.535022;
98.698883;2.535774;
98.738083;2.536650;
98.777298;2.537459;
98.816505;2.538474;
98.855682;2.539457;
98.894890;2.540643;
98.934105;2.541952;
98.973312;2.543193;
99.012512;2.544641;
99.051727;2.546119;
99.090935;2.547672;
99.130112;2.549358;
99.169327;2.551139;
99.208534;2.553051;
99.247742;2.554978;
99.286957;2.557004;
99.326157;2.559156;
99.365364;2.561500;
99.404541;2.563851;
99.443748;2.566226;
99.482964;2.568740;
99.522171;2.571309;
99.561386;2.573962;
99.600586;2.576641;
99.639801;2.579423;
99.678993;2.582258;
99.718185;2.585076;
99.757393;2.588013;
99.796600;2.591046;
99.835815;2.594006;
99.875015;2.597116;
99.914230;2.600075;
99.953400;2.603226;
99.992615;2.606342;
100.031822;2.609413;
100.071037;2.612647;
100.110245;2.615717;
100.149445;2.618701;
100.188660;2.621715;
100.227829;2.624622;
100.267052;2.627502;
100.306252;2.630222;
100.345467;2.633063;
100.384674;2.635757;
100.423889;2.638301;
100.463089;2.640726;
100.502266;2.643120;
100.541473;2.645341;
100.580681;2.647368;
100.619896;2.649325;
100.659103;2.651304;
100.698318;2.653124;
100.737518;2.654817;
100.776695;2.656328;
100.815903;2.657666;
100.855118;2.659093;
100.894325;2.660210;
100.933540;2.661313;
100.972748;2.662348;
101.011948;2.663142;
101.051125;2.663912;
101.090332;2.664657;
101.129547;2.665333;
101.168755;2.665845;
101.207970;2.666322;
101.247177;2.666718;
101.286392;2.666980;
101.325554;2.667345;
101.364761;2.667531;
101.403976;2.667750;
101.443184;2.667900;
101.482399;2.667998;
101.521606;2.668136;
101.560822;2.668126;
101.600006;2.668170;
101.639198;2.668147;
101.678406;2.668220;
101.717621;2.668153;
101.756828;2.668179;
101.796036;2.668135;
101.835251;2.668026;
101.874413;2.668026;
101.913628;2.667967;
101.952835;2.667925;
101.992050;2.667850;
102.031258;2.667823;
102.070473;2.667821;
102.109680;2.667723;
102.148857;2.667704;
102.188072;2.667730;
102.227264;2.667769;
102.266479;2.667704;
102.305687;2.667665;
102.344902;2.667597;
102.384109;2.667585;
102.423286;2.667545;
102.462486;2.667451;
102.501701;2.667398;
102.540909;2.667371;
102.580116;2.667242;
102.619331;2.667179;
102.658539;2.667135;
102.697716;2.666916;
102.736916;2.666884;
102.776131;2.666713;
102.815338;2.666461;
102.854553;2.666243;
102.893761;2.665985;
102.932976;2.665669;
102.972145;2.665464;
103.011345;2.665083;
103.050560;2.664729;
103.089767;2.664419;
103.128983;2.664021;
103.168190;2.663582;
103.207405;2.663247;
103.246574;2.662782;
103.285789;2.662343;
103.324989;2.661959;
103.364204;2.661447;
103.403412;2.661024;
103.442619;2.660540;
103.481834;2.660018;
103.521019;2.659510;
103.560219;2.659017;
103.599419;2.658522;
103.638634;2.658034;
103.677841;2.657575;
103.717056;2.657132;
103.756264;2.656662;
103.795433;2.656170;
103.834648;2.655689;
103.873848;2.655303;
103.913063;2.654855;
103.952271;2.654495;
103.991486;2.654040;
104.030693;2.653753;
104.069870;2.653388;
104.109093;2.652943;
104.148293;2.652678;
104.187492;2.652316;
104.226700;2.652110;
104.265915;2.651893;
104.305122;2.651629;
104.344299;2.651323;
104.383507;2.651114;
104.422722;2.650958;
104.461922;2.650808;
104.501137;2.650607;
104.540344;2.650480;
104.579559;2.650303;
104.618729;2.650177;
104.657936;2.650098;
104.697151;2.649895;
104.736351;2.649868;
104.775566;2.649709;
104.814774;2.649607;
104.853989;2.649491;
104.893158;2.649372;
104.932373;2.649243;
104.971581;2.649014;
105.010780;2.648883;
105.049995;2.648714;
105.089203;2.648508;
105.128418;2.648232;
105.167587;2.648082;
105.206802;2.647826;
105.246010;2.647468;
105.285225;2.647223;
105.324425;2.646902;
105.363640;2.646539;
105.402847;2.646230;
105.442024;2.645836;
105.481232;2.645440;
105.520439;2.645010;
105.559654;2.644592;
105.598854;2.644126;
105.638069;2.643674;
105.677277;2.643163;
105.716454;2.642768;
105.755661;2.642173;
105.794868;2.641740;
105.834084;2.641207;
105.873283;2.640712;
105.912498;2.640192;
105.951706;2.639621;
105.990883;2.639134;
106.030106;2.638604;
106.069305;2.638124;
106.108513;2.637571;
106.147728;2.637136;
106.186928;2.636661;
106.226135;2.636113;
106.265312;2.635671;
106.304520;2.635359;
106.343735;2.634803;
106.382942;2.634461;
106.422157;2.634049;
106.461357;2.633740;
106.500572;2.633375;
106.539749;2.633046;
106.578957;2.632741;
106.618164;2.632529;
106.657372;2.632280;
106.696587;2.632017;
106.735786;2.631762;
106.775002;2.631542;
106.814171;2.631336;
106.853386;2.631186;
106.892593;2.631052;
106.931808;2.630912;
106.971016;2.630756;
107.010216;2.630654;
107.049431;2.630476;
107.088600;2.630290;
107.127815;2.630182;
107.167023;2.630025;
107.206238;2.629912;
107.245445;2.629754;
107.284660;2.629608;
107.323860;2.629436;
107.363052;2.629345;
107.402245;2.629139;
107.441452;2.628966;
107.480667;2.628726;
107.519875;2.628533;
107.559090;2.628231;
107.598289;2.627908;
107.637466;2.627609;
107.676674;2.627317;
107.715889;2.626944;
107.755096;2.626545;
107.794312;2.626148;
107.833519;2.625716;
107.872719;2.625226;
107.911896;2.624825;
107.951126;2.624408;
107.990318;2.623927;
108.029526;2.623477;
108.068741;2.622986;
108.107948;2.622365;
108.147163;2.621853;
108.186325;2.621364;
108.225533;2.620818;
108.264748;2.620225;
108.303955;2.619726;
108.343170;2.619280;
108.382378;2.618723;
108.421593;2.618182;
108.460770;2.617640;
108.499969;2.617240;
108.539177;2.616751;
108.578392;2.616224;
108.617599;2.615772;
108.656807;2.615349;
108.696022;2.614996;
108.735184;2.614460;
108.774399;2.614125;
108.813606;2.613798;
108.852821;2.613409;
108.892029;2.613035;
108.931244;2.612782;
108.970451;2.612415;
109.009628;2.612245;
109.048828;2.611957;
109.088036;2.611748;
109.127251;2.611516;
109.166458;2.611285;
109.205673;2.611176;
109.244881;2.611057;
109.284058;2.610813;
109.323257;2.610688;
109.362473;2.610554;
109.401680;2.610416;
109.440887;2.610293;
109.480103;2.610152;
109.519310;2.609988;
109.558487;2.609851;
109.597687;2.609692;
109.636902;2.609546;
109.676109;2.609375;
109.715324;2.609162;
109.754532;2.608953;
109.793747;2.608784;
109.832916;2.608474;
109.872139;2.608275;
109.911331;2.608007;
109.950539;2.607643;
109.989754;2.607391;
110.028961;2.607063;
110.068176;2.606702;
110.107346;2.606317;
110.146561;2.605852;
110.185760;2.605389;
110.224976;2.604983;
110.264183;2.604461;
110.303391;2.603924;
110.342606;2.603497;
110.381790;2.603028;
110.420990;2.602403;
110.460197;2.601835;
110.499413;2.601287;
110.538612;2.600786;
110.577827;2.600248;
110.617035;2.599691;
110.656204;2.599187;
110.695419;2.598548;
110.734627;2.598032;
110.773842;2.597457;
110.813042;2.596951;
110.852257;2.596452;
110.891464;2.595983;
110.930641;2.595448;
110.969849;2.595011;
111.009064;2.594494;
111.048271;2.594097;
111.087471;2.593688;
111.126686;2.593263;
111.165894;2.592932;
111.205070;2.592586;
111.244278;2.592271;
111.283493;2.591957;
111.322701;2.591696;
111.361916;2.591443;
111.401115;2.591189;
111.440323;2.590905;
111.479500;2.590714;
111.518707;2.590521;
111.557922;2.590368;
111.597130;2.590192;
111.636345;2.589983;
111.675545;2.589856;
111.714760;2.589748;
111.753929;2.589534;
111.793152;2.589390;
111.832352;2.589212;
111.871559;2.589062;
111.910774;2.588880;
111.949974;2.588724;
111.989189;2.588494;
112.028358;2.588257;
112.067574;2.588076;
112.106781;2.587818;
112.145996;2.587572;
112.185204;2.587268;
112.224419;2.586995;
112.263618;2.586648;
112.302811;2.586281;
112.342003;2.585933;
112.381210;2.585521;
112.420425;2.585088;
112.459633;2.584669;
112.498848;2.584207;
112.538048;2.583733;
112.577225;2.583269;
112.616432;2.582742;
112.655640;2.582180;
112.694855;2.581619;
112.734062;2.581097;
112.773277;2.580512;
112.812477;2.579974;
112.851654;2.579409;
112.890869;2.578815;
112.930077;2.578234;
112.969284;2.577657;
113.008499;2.577035;
113.047707;2.576491;
113.086906;2.575927;
113.126083;2.575426;
113.165291;2.574889;
113.204506;2.574282;
113.243713;2.573701;
113.282928;2.573282;
113.322136;2.572813;
113.361351;2.572318;
113.400513;2.571801;
113.439728;2.571461;
113.478935;2.571048;
113.518143;2.570595;
113.557358;2.570335;
113.596565;2.569979;
