"Piezo Voltage (V)";"Fine In 1 (V)";
87.607895;2.841224;
87.632469;2.840867;
87.657005;2.840618;
87.681557;2.840438;
87.706093;2.840270;
87.730652;2.840021;
87.755226;2.839872;
87.779762;2.839699;
87.804344;2.839433;
87.828880;2.839223;
87.853439;2.839031;
87.877975;2.838770;
87.902550;2.838619;
87.927086;2.838413;
87.951668;2.838200;
87.976204;2.838003;
88.000771;2.837776;
88.025299;2.837533;
88.049843;2.837328;
88.074425;2.837098;
88.098961;2.836898;
88.123535;2.836650;
88.148071;2.836399;
88.172653;2.836143;
88.197166;2.835892;
88.221748;2.835719;
88.246284;2.835454;
88.270859;2.835194;
88.295395;2.834978;
88.319954;2.834650;
88.344513;2.834452;
88.369041;2.834126;
88.393616;2.833963;
88.418152;2.833720;
88.442734;2.833460;
88.467270;2.833168;
88.491844;2.832990;
88.516380;2.832752;
88.540939;2.832521;
88.565475;2.832235;
88.590042;2.831949;
88.614594;2.831661;
88.639153;2.831438;
88.663704;2.831165;
88.688263;2.830982;
88.712814;2.830743;
88.737350;2.830512;
88.761925;2.830209;
88.786461;2.829994;
88.811043;2.829754;
88.835579;2.829439;
88.860153;2.829246;
88.884674;2.829009;
88.909248;2.828825;
88.933784;2.828603;
88.958344;2.828358;
88.982910;2.828183;
89.007462;2.827890;
89.032036;2.827645;
89.056541;2.827462;
89.081123;2.827259;
89.105659;2.827027;
89.130234;2.826765;
89.154770;2.826608;
89.179352;2.826362;
89.203888;2.826163;
89.228432;2.825938;
89.252983;2.825707;
89.277542;2.825514;
89.302116;2.825293;
89.326653;2.825173;
89.351227;2.824949;
89.375771;2.824787;
89.400314;2.824593;
89.424850;2.824345;
89.449432;2.824244;
89.473969;2.824040;
89.498543;2.823894;
89.523079;2.823685;
89.547638;2.823539;
89.572189;2.823447;
89.596733;2.823322;
89.621307;2.823121;
89.645851;2.822989;
89.670425;2.822775;
89.694962;2.822588;
89.719536;2.822504;
89.744049;2.822270;
89.768623;2.822161;
89.793159;2.822041;
89.817726;2.821800;
89.842278;2.821674;
89.866837;2.821570;
89.891388;2.821377;
89.915932;2.821212;
89.940506;2.821098;
89.965042;2.820992;
89.989616;2.820851;
90.014160;2.820685;
90.038734;2.820561;
90.063271;2.820425;
90.087822;2.820311;
90.112358;2.820209;
90.136917;2.820000;
90.161469;2.819968;
90.186028;2.819840;
90.210594;2.819653;
90.235146;2.819508;
90.259697;2.819417;
90.284241;2.819288;
90.308815;2.819122;
90.333351;2.819048;
90.357933;2.818885;
90.382469;2.818755;
90.407043;2.818633;
90.431557;2.818472;
90.456131;2.818325;
90.480667;2.818173;
90.505226;2.818082;
90.529800;2.817911;
90.554337;2.817778;
90.578918;2.817631;
90.603432;2.817515;
90.628014;2.817333;
90.652550;2.817307;
90.677124;2.816964;
90.701660;2.816852;
90.726242;2.816641;
90.750778;2.816519;
90.775314;2.816334;
90.799873;2.816144;
90.824417;2.815918;
90.848999;2.815784;
90.873535;2.815603;
90.898109;2.815349;
90.922646;2.815202;
90.947205;2.815001;
90.971741;2.814832;
90.996323;2.814565;
91.020859;2.814308;
91.045433;2.814058;
91.069969;2.813864;
91.094528;2.813597;
91.119080;2.813495;
91.143616;2.813172;
91.168190;2.812968;
91.192726;2.812707;
91.217308;2.812441;
91.241844;2.812209;
91.266418;2.811939;
91.290939;2.811741;
91.315514;2.811562;
91.340050;2.811273;
91.364616;2.811017;
91.389168;2.810776;
91.413727;2.810573;
91.438278;2.810271;
91.462807;2.810022;
91.487389;2.809763;
91.511925;2.809512;
91.536499;2.809259;
91.561035;2.808929;
91.585617;2.808733;
91.610153;2.808518;
91.634712;2.808242;
91.659248;2.807997;
91.683807;2.807726;
91.708359;2.807489;
91.732918;2.807232;
91.757484;2.806981;
91.782036;2.806747;
91.806580;2.806444;
91.831116;2.806264;
91.855698;2.806065;
91.880234;2.805771;
91.904808;2.805575;
91.929344;2.805315;
91.953926;2.805092;
91.978439;2.804807;
92.003006;2.804671;
92.027557;2.804409;
92.052116;2.804171;
92.076691;2.804010;
92.101227;2.803748;
92.125801;2.803579;
92.150314;2.803390;
92.174889;2.803216;
92.199425;2.802988;
92.224007;2.802868;
92.248543;2.802668;
92.273117;2.802408;
92.297653;2.802260;
92.322197;2.802087;
92.346764;2.801898;
92.371307;2.801697;
92.395882;2.801607;
92.420425;2.801439;
92.445000;2.801214;
92.469536;2.801131;
92.494087;2.800966;
92.518623;2.800828;
92.543198;2.800700;
92.567734;2.800563;
92.592300;2.800457;
92.616852;2.800247;
92.641411;2.800147;
92.665962;2.799973;
92.690506;2.799860;
92.715080;2.799708;
92.739616;2.799550;
92.764191;2.799422;
92.788734;2.799304;
92.813309;2.799151;
92.837814;2.799083;
92.862396;2.798998;
92.886932;2.798885;
92.911491;2.798783;
92.936043;2.798672;
92.960602;2.798484;
92.985168;2.798429;
93.009697;2.798311;
93.034271;2.798167;
93.058815;2.798102;
93.083389;2.798013;
93.107925;2.797825;
93.132500;2.797776;
93.157043;2.797567;
93.181587;2.797508;
93.206123;2.797380;
93.230682;2.797262;
93.255241;2.797108;
93.279800;2.796984;
93.304375;2.796807;
93.328911;2.796724;
93.353470;2.796502;
93.378006;2.796406;
93.402580;2.796189;
93.427124;2.796169;
93.451698;2.795949;
93.476234;2.795842;
93.500809;2.795637;
93.525322;2.795495;
93.549889;2.795362;
93.574448;2.795195;
93.598991;2.795047;
93.623566;2.794833;
93.648109;2.794644;
93.672684;2.794545;
93.697205;2.794294;
93.721779;2.794154;
93.746315;2.793902;
93.770889;2.793685;
93.795433;2.793498;
93.820007;2.793318;
93.844543;2.793084;
93.869072;2.792859;
93.893646;2.792592;
93.918190;2.792430;
93.942764;2.792251;
93.967300;2.792010;
93.991875;2.791833;
94.016418;2.791607;
94.040970;2.791343;
94.065514;2.791099;
94.090088;2.790865;
94.114624;2.790599;
94.139191;2.790417;
94.163742;2.790132;
94.188293;2.789844;
94.212845;2.789610;
94.237381;2.789361;
94.261955;2.789155;
94.286499;2.788900;
94.311073;2.788682;
94.335609;2.788417;
94.360184;2.788203;
94.384705;2.787875;
94.409279;2.787585;
94.433823;2.787330;
94.458374;2.787101;
94.482933;2.786834;
94.507492;2.786642;
94.532059;2.786361;
94.556580;2.786175;
94.581154;2.785867;
94.605690;2.785662;
94.630264;2.785433;
94.654808;2.785251;
94.679382;2.784952;
94.703918;2.784753;
94.728477;2.784487;
94.753014;2.784300;
94.777573;2.784081;
94.802132;2.783914;
94.826683;2.783665;
94.851265;2.783486;
94.875801;2.783338;
94.900345;2.783105;
94.924889;2.782882;
94.949463;2.782723;
94.973999;2.782509;
94.998573;2.782315;
95.023117;2.782182;
95.047691;2.781943;
95.072212;2.781854;
95.096764;2.781703;
95.121330;2.781506;
95.145882;2.781387;
95.170456;2.781118;
95.194992;2.780962;
95.219574;2.780861;
95.244080;2.780715;
95.268654;2.780601;
95.293198;2.780490;
95.317772;2.780351;
95.342308;2.780177;
95.366875;2.780067;
95.391426;2.779968;
95.415962;2.779776;
95.440536;2.779665;
95.465073;2.779538;
95.489655;2.779421;
95.514191;2.779367;
95.538765;2.779265;
95.563301;2.779111;
95.587852;2.778993;
95.612389;2.778942;
95.636963;2.778770;
95.661507;2.778704;
95.686058;2.778550;
95.710617;2.778428;
95.735176;2.778419;
95.759735;2.778235;
95.784271;2.778112;
95.808846;2.778056;
95.833382;2.777887;
95.857964;2.777848;
95.882500;2.777750;
95.907074;2.777574;
95.931587;2.777524;
95.956161;2.777347;
95.980698;2.777245;
96.005257;2.777167;
96.029816;2.776993;
96.054367;2.776942;
96.078949;2.776793;
96.103462;2.776747;
96.128044;2.776573;
96.152580;2.776456;
96.177155;2.776330;
96.201691;2.776155;
96.226273;2.776066;
96.250809;2.775939;
96.275352;2.775736;
96.299896;2.775600;
96.324448;2.775419;
96.349014;2.775227;
96.373566;2.775067;
96.398140;2.774895;
96.422676;2.774708;
96.447235;2.774564;
96.471771;2.774337;
96.496353;2.774175;
96.520889;2.773962;
96.545464;2.773747;
96.570000;2.773500;
96.594582;2.773286;
96.619087;2.773140;
96.643646;2.772867;
96.668221;2.772695;
96.692757;2.772433;
96.717339;2.772147;
96.741875;2.772018;
96.766449;2.771769;
96.790970;2.771532;
96.815544;2.771228;
96.840080;2.771091;
96.864662;2.770816;
96.889198;2.770556;
96.913765;2.770264;
96.938309;2.770003;
96.962837;2.769745;
96.987419;2.769460;
97.011955;2.769269;
97.036530;2.768927;
97.061066;2.768661;
97.085648;2.768433;
97.110184;2.768099;
97.134743;2.767863;
97.159279;2.767607;
97.183853;2.767334;
97.208389;2.767030;
97.232948;2.766796;
97.257507;2.766539;
97.282066;2.766129;
97.306610;2.765893;
97.331146;2.765706;
97.355728;2.765384;
97.380264;2.765132;
97.404839;2.764867;
97.429375;2.764564;
97.453957;2.764315;
97.478470;2.764042;
97.503052;2.763786;
97.527588;2.763491;
97.552147;2.763271;
97.576698;2.763051;
97.601257;2.762792;
97.625832;2.762433;
97.650345;2.762253;
97.674919;2.762028;
97.699455;2.761740;
97.724037;2.761529;
97.748573;2.761263;
97.773148;2.760988;
97.797684;2.760788;
97.822243;2.760579;
97.846779;2.760249;
97.871338;2.760043;
97.895905;2.759728;
97.920456;2.759485;
97.945030;2.759253;
97.969566;2.759027;
97.994118;2.758722;
98.018654;2.758451;
98.043228;2.758233;
98.067764;2.757977;
98.092346;2.757697;
98.116882;2.757431;
98.141449;2.757143;
98.165977;2.756889;
98.190536;2.756603;
98.215111;2.756357;
98.239647;2.756102;
98.264221;2.755824;
98.288765;2.755543;
98.313339;2.755234;
98.337845;2.755015;
98.362427;2.754778;
98.386963;2.754391;
98.411530;2.754106;
98.436073;2.753888;
98.460632;2.753548;
98.485191;2.753316;
98.509727;2.753009;
98.534302;2.752712;
98.558846;2.752358;
98.583420;2.752084;
98.607956;2.751805;
98.632530;2.751547;
98.657074;2.751219;
98.681618;2.750999;
98.706154;2.750708;
98.730713;2.750341;
98.755272;2.750083;
98.779831;2.749752;
98.804382;2.749454;
98.828941;2.749101;
98.853500;2.748805;
98.878036;2.748495;
98.902611;2.748185;
98.927155;2.747947;
98.951729;2.747593;
98.976265;2.747305;
99.000839;2.747019;
99.025352;2.746769;
99.049927;2.746534;
99.074463;2.746258;
99.099022;2.745993;
99.123589;2.745743;
99.148140;2.745502;
99.172714;2.745262;
99.197235;2.744954;
99.221809;2.744670;
99.246346;2.744355;
99.270920;2.743999;
99.295464;2.743558;
99.320038;2.743240;
99.344574;2.742746;
99.369125;2.742451;
99.393661;2.742136;
99.418221;2.741775;
99.442795;2.741390;
99.467331;2.741094;
99.491905;2.740776;
99.516449;2.740419;
99.541000;2.740103;
99.565544;2.739714;
99.590118;2.739288;
99.614655;2.738753;
99.639229;2.738209;
99.663773;2.737509;
99.688339;2.736914;
99.712868;2.736412;
99.737411;2.736233;
99.761986;2.736207;
99.786530;2.736440;
99.811104;2.736798;
99.835640;2.737053;
99.860214;2.737265;
99.884735;2.737345;
99.909309;2.737395;
99.933853;2.737307;
99.958420;2.737332;
99.982964;2.737279;
100.007523;2.737216;
100.032082;2.737169;
100.056610;2.737131;
100.085548;2.737043;
100.105721;2.736926;
100.130295;2.736918;
100.154839;2.736836;
100.179413;2.736766;
100.203949;2.736763;
100.228508;2.736863;
100.253044;2.736921;
100.277603;2.736940;
100.302162;2.736946;
100.326714;2.736838;
100.351273;2.736887;
100.375832;2.736816;
100.400375;2.736789;
100.424919;2.736788;
100.449493;2.736746;
100.474030;2.736751;
100.498604;2.736663;
100.523148;2.736696;
100.547722;2.736704;
100.572243;2.736720;
100.596809;2.736667;
100.621353;2.736710;
100.645912;2.736776;
100.670479;2.736738;
100.695023;2.736820;
100.719604;2.736832;
100.744110;2.736878;
100.768684;2.736852;
100.793228;2.736892;
100.817802;2.736872;
100.842339;2.736960;
100.866913;2.737008;
100.891457;2.737006;
100.915993;2.737012;
100.940552;2.737096;
100.965103;2.737050;
100.989685;2.737029;
101.014221;2.737044;
101.038795;2.737091;
101.063332;2.737100;
101.087883;2.737158;
101.112419;2.737143;
101.136993;2.737204;
101.161537;2.737162;
101.186104;2.737225;
101.210648;2.737177;
101.235207;2.737125;
101.259750;2.737103;
101.284302;2.737143;
101.308876;2.737115;
101.333412;2.736996;
101.357994;2.736975;
101.382530;2.736941;
101.407104;2.736983;
101.431618;2.736857;
101.456192;2.736813;
101.480728;2.736711;
101.505287;2.736650;
101.529846;2.736495;
101.554398;2.736444;
101.578957;2.736320;
101.603493;2.736214;
101.628075;2.736116;
101.652611;2.735961;
101.677185;2.735771;
101.701721;2.735681;
101.726303;2.735543;
101.750839;2.735307;
101.775383;2.735195;
101.799927;2.735011;
101.824478;2.734856;
101.849037;2.734632;
101.873596;2.734363;
101.898163;2.734217;
101.922707;2.733988;
101.947266;2.733758;
101.971802;2.733594;
101.996384;2.733390;
102.020920;2.733150;
102.045494;2.732890;
102.070030;2.732702;
102.094612;2.732428;
102.119118;2.732229;
102.143684;2.731946;
102.168243;2.731670;
102.192787;2.731498;
102.217369;2.731226;
102.241905;2.730999;
102.266479;2.730781;
102.291000;2.730540;
102.315575;2.730182;
102.340111;2.730021;
102.364693;2.729738;
102.389229;2.729476;
102.413803;2.729183;
102.438339;2.728977;
102.462868;2.728699;
102.487434;2.728539;
102.511986;2.728252;
102.536560;2.728045;
102.561096;2.727836;
102.585678;2.727509;
102.610214;2.727312;
102.634773;2.727057;
102.659309;2.726851;
102.683884;2.726579;
102.708420;2.726349;
102.732986;2.726100;
102.757538;2.725936;
102.782097;2.725740;
102.806641;2.725457;
102.831177;2.725274;
102.855759;2.725018;
102.880295;2.724858;
102.904869;2.724690;
102.929405;2.724449;
102.953987;2.724246;
102.978500;2.724060;
103.003082;2.723842;
103.027618;2.723736;
103.052177;2.723533;
103.076729;2.723386;
103.101288;2.723169;
103.125847;2.722986;
103.150375;2.722834;
103.174950;2.722664;
103.199486;2.722477;
103.224068;2.722369;
103.248604;2.722130;
103.273178;2.721921;
103.297714;2.721809;
103.322273;2.721622;
103.346809;2.721550;
103.371368;2.721364;
103.395927;2.721164;
103.420486;2.721028;
103.445053;2.720804;
103.469597;2.720630;
103.494148;2.720547;
103.518684;2.720342;
103.543259;2.720195;
103.567795;2.720046;
103.592377;2.719886;
103.616913;2.719729;
103.641487;2.719608;
103.666008;2.719370;
103.690567;2.719306;
103.715134;2.719055;
103.739677;2.718920;
103.764252;2.718827;
103.788795;2.718661;
103.813370;2.718456;
103.837875;2.718311;
103.862457;2.718035;
103.886993;2.717915;
103.911568;2.717716;
103.936104;2.717571;
103.960670;2.717380;
103.985222;2.717179;
104.009758;2.717014;
104.034332;2.716761;
104.058876;2.716554;
104.083450;2.716340;
104.107986;2.716154;
104.132561;2.715952;
104.157104;2.715739;
104.181648;2.715495;
104.206184;2.715278;
104.230766;2.715072;
104.255302;2.714792;
104.279861;2.714627;
104.304413;2.714313;
104.328972;2.714080;
104.353531;2.713755;
104.378067;2.713571;
104.402641;2.713291;
104.427185;2.713040;
104.451759;2.712756;
104.476295;2.712463;
104.500870;2.712233;
104.525383;2.711966;
104.549957;2.711641;
104.574493;2.711326;
104.599052;2.711124;
104.623611;2.710807;
104.648170;2.710497;
104.672737;2.710221;
104.697266;2.709840;
104.721840;2.709623;
104.746376;2.709299;
104.770950;2.709034;
104.795494;2.708730;
104.820068;2.708404;
104.844604;2.708108;
104.869156;2.707870;
104.893692;2.707606;
104.918251;2.707281;
104.942818;2.706971;
104.967361;2.706677;
104.991936;2.706391;
105.016479;2.706057;
105.041031;2.705828;
105.065575;2.705472;
105.090149;2.705240;
105.114685;2.704970;
105.139259;2.704668;
105.163803;2.704341;
105.188377;2.704070;
105.212883;2.703860;
105.237442;2.703588;
105.262016;2.703362;
105.286560;2.702994;
105.311134;2.702738;
105.335670;2.702451;
105.360245;2.702251;
105.384766;2.702024;
105.409340;2.701841;
105.433884;2.701579;
105.458458;2.701296;
105.482994;2.701105;
105.507561;2.700824;
105.532112;2.700617;
105.556641;2.700296;
105.581215;2.700071;
105.605751;2.699848;
105.630325;2.699695;
105.654869;2.699418;
105.679443;2.699260;
105.703979;2.699034;
105.728539;2.698805;
105.753075;2.698627;
105.777649;2.698433;
105.802193;2.698244;
105.826744;2.698061;
105.851303;2.697842;
105.875862;2.697655;
105.900406;2.697445;
105.924950;2.697217;
105.949524;2.697074;
105.974060;2.696867;
105.998634;2.696629;
106.023178;2.696439;
106.047752;2.696213;
106.072273;2.696007;
106.096848;2.695838;
106.121384;2.695676;
106.145943;2.695551;
106.170502;2.695247;
106.195053;2.695056;
106.219635;2.694844;
106.244141;2.694593;
106.268715;2.694429;
106.293259;2.694201;
106.317833;2.694013;
106.342369;2.693842;
106.366943;2.693606;
106.391487;2.693376;
106.416039;2.693177;
106.440582;2.692964;
106.465134;2.692786;
106.489700;2.692555;
106.514252;2.692294;
106.538826;2.692084;
106.563362;2.691832;
106.587914;2.691580;
106.612450;2.691347;
106.637024;2.691153;
106.661568;2.690896;
106.686142;2.690636;
106.710678;2.690416;
106.735245;2.690157;
106.759773;2.689838;
106.784332;2.689561;
106.808907;2.689353;
106.833443;2.688987;
106.858025;2.688787;
106.882561;2.688460;
106.907135;2.688173;
106.931648;2.687873;
106.956223;2.687617;
106.980759;2.687270;
107.005333;2.687023;
107.029877;2.686732;
107.054428;2.686431;
107.078987;2.686080;
107.103523;2.685798;
107.128105;2.685493;
107.152641;2.685180;
107.177216;2.684831;
107.201752;2.684545;
107.226334;2.684139;
107.250870;2.683904;
107.275414;2.683550;
107.299957;2.683238;
107.324524;2.682956;
107.349068;2.682658;
107.373627;2.682280;
107.398186;2.681963;
107.422737;2.681637;
107.447296;2.681292;
107.471832;2.681038;
107.496414;2.680651;
107.520950;2.680476;
107.545525;2.680073;
107.570061;2.679820;
107.594643;2.679506;
107.619148;2.679156;
107.643723;2.678942;
107.668266;2.678637;
107.692818;2.678370;
107.717384;2.678022;
107.741936;2.677755;
107.766510;2.677554;
107.791031;2.677164;
107.815605;2.676977;
107.840141;2.676689;
107.864723;2.676336;
107.889259;2.676129;
107.913834;2.675878;
107.938370;2.675560;
107.962921;2.675358;
107.987457;2.675072;
108.012016;2.674739;
108.036591;2.674430;
108.061127;2.674212;
108.085709;2.673953;
108.110245;2.673743;
108.134804;2.673474;
108.159340;2.673246;
108.183914;2.672982;
108.208450;2.672757;
108.233032;2.672586;
108.257568;2.672272;
108.282135;2.672075;
108.306664;2.671860;
108.331207;2.671597;
108.355789;2.671398;
108.380325;2.671241;
108.404900;2.671025;
108.429436;2.670735;
108.454018;2.670519;
108.478531;2.670258;
108.503113;2.670102;
108.527649;2.669844;
108.552223;2.669598;
108.576759;2.669436;
108.601318;2.669214;
108.625877;2.669002;
108.650406;2.668730;
108.674980;2.668607;
108.699516;2.668362;
108.724098;2.668150;
108.748634;2.667908;
108.773209;2.667653;
108.797745;2.667361;
108.822304;2.667214;
108.846840;2.666988;
108.871407;2.666749;
108.895958;2.666550;
108.920517;2.666308;
108.945068;2.666111;
108.969627;2.665843;
108.994179;2.665646;
109.018715;2.665367;
109.043289;2.665159;
109.067825;2.664886;
109.092407;2.664669;
109.116943;2.664391;
109.141518;2.664166;
109.166039;2.663873;
109.190613;2.663680;
109.215149;2.663420;
109.239708;2.663137;
109.264275;2.662876;
109.288826;2.662617;
109.313400;2.662264;
109.337906;2.662053;
109.362488;2.661618;
109.387024;2.661451;
109.411598;2.661176;
109.436134;2.660912;
109.460716;2.660579;
109.485252;2.660253;
109.509796;2.659925;
109.534348;2.659567;
109.558907;2.659392;
109.583481;2.659093;
109.608017;2.658789;
109.632591;2.658449;
109.657135;2.658166;
109.681679;2.657809;
109.706215;2.657519;
109.730797;2.657087;
109.755333;2.656875;
109.779907;2.656533;
109.804443;2.656223;
109.829002;2.655892;
109.853554;2.655534;
109.878098;2.655287;
109.902672;2.654941;
109.927216;2.654597;
109.951790;2.654301;
109.976326;2.653958;
110.000900;2.653630;
110.025414;2.653270;
110.049988;2.652990;
110.074524;2.652675;
110.099091;2.652382;
110.123642;2.652066;
110.148201;2.651750;
110.172752;2.651472;
110.197296;2.651181;
110.221870;2.650821;
110.246407;2.650526;
110.270981;2.650253;
110.295525;2.649910;
110.320099;2.649580;
110.344635;2.649355;
110.369186;2.649091;
110.393723;2.648793;
110.418282;2.648599;
