Piezo Voltage (V),Fine In 1 (V)
87.608017,2.860666
87.632568,2.860245
87.65712,2.85994
87.681679,2.859756
87.706215,2.859534
87.730797,2.859282
87.755333,2.859158
87.779907,2.859029
87.804443,2.858751
87.829025,2.858597
87.853531,2.858379
87.878105,2.858091
87.902649,2.857901
87.9272,2.857681
87.951759,2.857457
87.976318,2.857345
88.000885,2.857021
88.025414,2.856816
88.049988,2.856638
88.074524,2.856422
88.099106,2.856132
88.123642,2.855929
88.148216,2.855685
88.172752,2.855366
88.197304,2.855115
88.22184,2.854871
88.246399,2.854643
88.270958,2.854411
88.295509,2.854134
88.320091,2.853891
88.344627,2.853614
88.369186,2.853317
88.393723,2.853111
88.418297,2.852866
88.442833,2.852514
88.467415,2.852307
88.491951,2.851969
88.516525,2.851679
88.541039,2.851472
88.565605,2.851221
88.590157,2.850896
88.614708,2.850612
88.639282,2.850356
88.663818,2.850002
88.6884,2.849754
88.712914,2.849436
88.737495,2.849274
88.762032,2.848922
88.786606,2.848669
88.811142,2.848397
88.835724,2.848147
88.86026,2.847807
88.884789,2.847505
88.909363,2.847212
88.933899,2.846935
88.958481,2.846658
88.983017,2.846388
89.007591,2.846087
89.032127,2.845788
89.056686,2.845507
89.081223,2.84524
89.105804,2.844976
89.130341,2.844739
89.154907,2.844499
89.179451,2.84423
89.20401,2.843909
89.228561,2.843618
89.253098,2.843363
89.277672,2.843104
89.302208,2.842844
89.32679,2.842609
89.351326,2.842337
89.3759,2.842042
89.400421,2.841736
89.424995,2.841499
89.449532,2.841254
89.474091,2.841065
89.49865,2.840808
89.523209,2.840564
89.547775,2.840401
89.572289,2.840126
89.59687,2.839895
89.621407,2.839684
89.645981,2.839409
89.670517,2.839095
89.695099,2.838956
89.719635,2.838774
89.744194,2.838473
89.76873,2.838319
89.793289,2.838171
89.817841,2.837939
89.8424,2.837715
89.866974,2.837523
89.891518,2.837281
89.916061,2.837021
89.940598,2.836833
89.965179,2.836637
89.989716,2.836422
90.01429,2.836199
90.038826,2.835947
90.063408,2.835799
90.087921,2.835563
90.11248,2.835395
90.137047,2.835237
90.161598,2.835067
90.186172,2.834882
90.210709,2.83464
90.235283,2.8345
90.259796,2.834251
90.28437,2.834053
90.308914,2.833931
90.333488,2.833704
90.358025,2.833496
90.382591,2.833325
90.407143,2.833173
90.431679,2.833057
90.456253,2.832786
90.480789,2.832606
90.505371,2.832424
90.529907,2.832214
90.554482,2.832098
90.579018,2.831854
90.603569,2.831693
90.628105,2.831551
90.652679,2.831333
90.677223,2.831138
90.701775,2.830918
90.726334,2.830728
90.750893,2.830589
90.775452,2.830366
90.799988,2.830133
90.824562,2.829973
90.849098,2.829771
90.87368,2.829544
90.898216,2.829358
90.922791,2.829134
90.947304,2.828933
90.971878,2.828766
90.996414,2.828559
91.020973,2.828298
91.045532,2.828049
91.070084,2.827821
91.094666,2.827635
91.119179,2.827398
91.143761,2.827157
91.168297,2.826928
91.192871,2.826719
91.217407,2.826421
91.241989,2.826197
91.266525,2.825927
91.291069,2.825662
91.315613,2.825427
91.340164,2.825129
91.364731,2.824843
91.389282,2.824663
91.413857,2.824364
91.438393,2.824075
91.462952,2.823841
91.487488,2.823545
91.51207,2.823222
91.536606,2.822914
91.56118,2.82271
91.585716,2.822391
91.610298,2.822102
91.634804,2.82181
91.659363,2.8215
91.683937,2.821269
91.708473,2.820947
91.733055,2.820694
91.757591,2.820384
91.782166,2.82007
91.806686,2.819854
91.831261,2.819534
91.855797,2.819242
91.880379,2.819057
91.904915,2.818725
91.929482,2.81838
91.954025,2.818137
91.978554,2.817858
92.003136,2.817583
92.027672,2.817254
92.052246,2.817021
92.076782,2.816783
92.101364,2.816416
92.1259,2.816134
92.150459,2.815906
92.174995,2.815719
92.19957,2.815466
92.224106,2.815233
92.248665,2.814963
92.273224,2.814697
92.297783,2.814371
92.322327,2.814101
92.346863,2.813865
92.371445,2.81357
92.395981,2.813394
92.420555,2.813152
92.445091,2.812846
92.469673,2.812657
92.494186,2.812411
92.518768,2.812201
92.543304,2.81199
92.567863,2.811746
92.592415,2.811582
92.616974,2.811305
92.641548,2.811142
92.666061,2.81084
92.690636,2.810673
92.715172,2.810426
92.739754,2.810226
92.76429,2.810024
92.788864,2.809813
92.8134,2.809636
92.837959,2.809396
92.862495,2.809197
92.887054,2.809048
92.911621,2.808881
92.936172,2.808771
92.960747,2.808565
92.985283,2.808345
93.009834,2.808217
93.03437,2.808029
93.058945,2.807903
93.083481,2.807622
93.108063,2.807545
93.132599,2.807306
93.157166,2.807191
93.181694,2.806975
93.206253,2.80684
93.230827,2.80666
93.255363,2.806508
93.279938,2.806341
93.304482,2.806094
93.329056,2.805951
93.353561,2.805819
93.378143,2.805718
93.402679,2.805485
93.427254,2.805321
93.45179,2.805151
93.476349,2.805048
93.500908,2.804886
93.525444,2.80466
93.550018,2.804478
93.574562,2.804255
93.599136,2.804095
93.623672,2.803956
93.648247,2.803736
93.672791,2.803552
93.697334,2.803423
93.72187,2.803223
93.746437,2.803058
93.770988,2.802915
93.795547,2.802701
93.820099,2.802424
93.844658,2.802315
93.869217,2.80203
93.893753,2.80182
93.918327,2.801697
93.942871,2.801442
93.967445,2.80128
93.991982,2.801026
94.016556,2.800795
94.041069,2.800592
94.065643,2.800377
94.090179,2.80015
94.114738,2.799915
94.139305,2.799739
94.163857,2.799387
94.188431,2.79921
94.212952,2.798959
94.237526,2.798635
94.262062,2.798399
94.286636,2.798119
94.31118,2.797901
94.335754,2.797583
94.360291,2.797347
94.384842,2.797095
94.409378,2.796876
94.433937,2.796525
94.458511,2.796313
94.483047,2.796002
94.507622,2.795751
94.532166,2.795414
94.556717,2.795146
94.581261,2.794885
94.605835,2.794623
94.630371,2.794269
94.654945,2.794018
94.679489,2.793729
94.704056,2.793506
94.728584,2.793183
94.753128,2.792954
94.777702,2.792631
94.802246,2.792319
94.82682,2.792126
94.851357,2.791793
94.875931,2.791603
94.900452,2.791374
94.925026,2.791114
94.94957,2.790771
94.974136,2.790475
94.99868,2.79022
95.023239,2.789979
95.047798,2.789686
95.072327,2.789378
95.096901,2.789144
95.121437,2.78896
95.146011,2.788696
95.170555,2.788492
95.195129,2.78821
95.219666,2.787972
95.244225,2.787732
95.268761,2.787481
95.29332,2.787244
95.317879,2.78707
95.34243,2.786827
95.366989,2.786528
95.391548,2.786364
95.416092,2.786134
95.440636,2.785899
95.46521,2.785679
95.489746,2.785509
95.51432,2.785272
95.538864,2.785112
95.563438,2.784869
95.587959,2.784678
95.612534,2.784499
95.63707,2.784311
95.661629,2.784106
95.686195,2.783851
95.710739,2.783622
95.735321,2.78351
95.759827,2.783242
95.784401,2.783109
95.808945,2.782933
95.833519,2.782743
95.858055,2.782559
95.882629,2.782372
95.907173,2.782224
95.931717,2.782047
95.956268,2.781829
95.98082,2.781647
96.005402,2.781454
96.029938,2.781253
96.054512,2.781117
96.079048,2.780856
96.1036,2.780803
96.128136,2.780531
96.15271,2.780329
96.177254,2.780192
96.20182,2.779956
96.226364,2.779721
96.250923,2.779563
96.275467,2.779362
96.300018,2.779142
96.324593,2.778903
96.349129,2.778696
96.373711,2.778414
96.398247,2.778231
96.422821,2.778059
96.447334,2.777768
96.471909,2.777508
96.496445,2.777198
96.521004,2.776952
96.545563,2.776697
96.570114,2.776452
96.594673,2.776151
96.619209,2.775815
96.643791,2.775561
96.668327,2.775195
96.692902,2.774815
96.717438,2.774439
96.74202,2.774214
96.766556,2.773761
96.7911,2.773399
96.815643,2.773028
96.840195,2.77256
96.864754,2.772201
96.889313,2.771805
96.913879,2.771345
96.938423,2.770839
96.962982,2.770359
96.987518,2.769852
97.0121,2.769339
97.036636,2.768812
97.061211,2.768237
97.085747,2.767634
97.110329,2.767051
97.134834,2.766423
97.159393,2.765804
97.183952,2.765086
97.208504,2.764361
97.233086,2.763617
97.257622,2.762897
97.282196,2.762115
97.306717,2.761373
97.331291,2.76057
97.355827,2.759645
97.380409,2.758716
97.404945,2.757766
97.42952,2.756803
97.454056,2.755831
97.478584,2.754835
97.503151,2.753647
97.527702,2.752568
97.552277,2.751399
97.576813,2.750182
97.601395,2.748968
97.625931,2.747659
97.65049,2.746306
97.675026,2.744899
97.6996,2.743414
97.724136,2.742008
97.748703,2.740416
97.773254,2.738775
97.797813,2.737168
97.822357,2.735462
97.846893,2.733624
97.871475,2.731813
97.896011,2.729917
97.920586,2.727941
97.945122,2.725917
97.969704,2.723817
97.994217,2.721626
98.018799,2.719397
98.043335,2.717122
98.067894,2.714735
98.092445,2.712368
98.117004,2.709846
98.141563,2.707277
98.166092,2.704716
98.190666,2.701989
98.215202,2.69927
98.239784,2.696386
98.26432,2.693455
98.288895,2.690567
98.313431,2.687469
98.33799,2.684428
98.362526,2.68121
98.387085,2.678031
98.411644,2.674709
98.436203,2.67135
98.46077,2.66802
98.485313,2.664564
98.509865,2.661048
98.534401,2.65753
98.558975,2.653905
98.583511,2.650346
98.608093,2.646581
98.632629,2.642907
98.657204,2.639199
98.681725,2.635396
98.706284,2.631617
98.73085,2.627638
98.755394,2.623922
98.779968,2.620115
98.804512,2.61618
98.829086,2.612334
98.853592,2.608428
98.878174,2.604551
98.90271,2.600707
98.927284,2.596849
98.95182,2.593097
98.976387,2.589194
99.000938,2.585479
99.025475,2.581776
99.050041,2.578047
99.074593,2.57448
99.099167,2.570897
99.123703,2.56741
99.148277,2.563944
99.172821,2.56054
99.197365,2.55735
99.221901,2.554175
99.246483,2.55107
99.271019,2.548177
99.295578,2.545368
99.320129,2.542728
99.344688,2.5403
99.369247,2.53808
99.393784,2.535977
99.418358,2.53421
99.442902,2.532606
99.467476,2.531177
99.492012,2.529859
99.516586,2.528289
99.5411,2.526443
99.565666,2.524317
99.59021,2.521726
99.614769,2.519041
99.639328,2.516477
99.663887,2.513963
99.688454,2.511524
99.712982,2.509136
99.737556,2.506869
99.762093,2.504686
99.786667,2.502649
99.811211,2.500724
99.835785,2.498744
99.860321,2.496787
99.884872,2.494722
99.909409,2.492271
99.933968,2.489419
99.958534,2.485531
99.983078,2.480391
100.007652,2.474136
100.032196,2.467472
100.056747,2.462868
100.085548,2.462483
100.105865,2.465267
100.130402,2.471122
100.154976,2.479593
100.17952,2.487789
100.204094,2.494378
100.2286,2.499483
100.253159,2.503563
100.277733,2.50719
100.302277,2.510382
100.326851,2.513442
100.351387,2.516255
100.375961,2.519043
100.400482,2.521755
100.425056,2.52433
100.4496,2.526683
100.474174,2.52876
100.498711,2.530735
100.523277,2.533118
100.547829,2.536322
100.572357,2.540281
100.596931,2.544175
100.621468,2.547673
100.646042,2.550754
100.670586,2.553528
100.69516,2.556254
100.719696,2.558894
100.744255,2.561543
100.768791,2.564191
100.793365,2.566809
100.817909,2.569511
100.842461,2.572239
100.86702,2.575079
100.891579,2.577888
100.916122,2.580775
100.940666,2.583724
100.96524,2.586668
100.989777,2.589652
101.014351,2.592665
101.038895,2.595645
101.063469,2.5988
101.08799,2.601763
101.112556,2.604882
101.1371,2.607991
101.161659,2.611015
101.186218,2.614131
101.21077,2.617198
101.235336,2.6202
101.259857,2.62338
101.284431,2.626412
101.308975,2.629401
101.333549,2.632472
101.358086,2.635458
101.38266,2.638367
101.407204,2.641323
101.431755,2.644226
101.456299,2.64705
101.48085,2.649923
101.505417,2.652673
101.529968,2.655426
101.554543,2.658202
101.579079,2.660861
101.60363,2.66341
101.628166,2.666065
101.65274,2.668485
101.677284,2.671014
101.701859,2.673469
101.726395,2.675769
101.750961,2.678039
101.77549,2.680244
101.800049,2.682324
101.824623,2.684406
101.849159,2.68639
101.873741,2.688389
101.898277,2.69026
101.922852,2.692114
101.947365,2.693929
101.971939,2.695555
101.996475,2.697215
102.021049,2.698757
102.045593,2.700259
102.070145,2.701645
102.094704,2.703004
102.11924,2.704272
102.143822,2.70542
102.168358,2.706588
102.192932,2.707713
102.217468,2.708689
102.24205,2.70968
102.266586,2.710545
102.29113,2.711486
102.315674,2.712241
102.34024,2.713019
102.364784,2.713772
102.389343,2.714417
102.413902,2.715024
102.438454,2.715578
102.463013,2.716169
102.487549,2.716601
102.512131,2.716999
102.536667,2.717413
102.561241,2.717812
102.585777,2.718143
102.610359,2.718438
102.634865,2.718699
102.659424,2.719012
102.683983,2.719233
102.708534,2.71947
102.733101,2.719616
102.757652,2.719756
102.782227,2.719959
102.806747,2.720072
102.831322,2.720056
102.855858,2.72024
102.88044,2.720323
102.904976,2.720361
102.92955,2.720389
102.954086,2.720351
102.978638,2.720426
103.003174,2.720408
103.027733,2.720411
103.052307,2.720411
103.076843,2.720399
103.101425,2.720419
103.125961,2.720389
103.15052,2.720274
103.175056,2.720244
103.199631,2.720203
103.224167,2.720201
103.248749,2.720122
103.273285,2.720059
103.297852,2.720043
103.32238,2.72002
103.346924,2.719945
103.371506,2.719977
103.396042,2.719796
103.420616,2.719763
103.445152,2.719734
103.469734,2.719668
103.494247,2.719583
103.518829,2.71948
103.543365,2.719476
103.56794,2.719371
103.592476,2.719326
103.617035,2.719239
103.641594,2.71914
103.666122,2.719141
103.690697,2.719104
103.715233,2.718952
103.739815,2.718917
103.764351,2.718753
103.788925,2.718698
103.813461,2.71863
103.83802,2.718565
103.862556,2.718444
103.887123,2.718346
103.911674,2.718264
103.936234,2.718094
103.960785,2.718063
103.985344,2.718009
104.009895,2.717787
104.034431,2.717706
104.059006,2.717558
104.083542,2.717458
104.108124,2.717373
104.13266,2.71727
104.157234,2.717173
104.181755,2.717075
104.206314,2.716923
104.230865,2.716746
104.255424,2.716578
104.279991,2.716453
104.304543,2.716329
104.329117,2.716139
104.353622,2.715959
104.378204,2.715904
104.40274,2.715674
104.427315,2.715543
104.451851,2.715359
104.476433,2.715197
104.500969,2.714991
104.525513,2.714775
104.550064,2.71459
104.574623,2.714385
104.599197,2.71414
104.623734,2.713923
104.648308,2.713702
104.672852,2.713489
104.697395,2.713227
104.721931,2.712992
104.746513,2.712803
104.771049,2.712521
104.795624,2.712254
104.82016,2.711927
104.844719,2.71179
104.86927,2.711524
104.893814,2.711207
104.918388,2.71096
104.942932,2.71068
104.967506,2.710413
104.992043,2.710133
105.016594,2.709866
105.04113,2.709524
105.065704,2.709245
105.09024,2.709057
105.114807,2.708774
105.139359,2.708471
105.163918,2.708205
105.188469,2.707928
105.213013,2.707649
105.237587,2.707354
105.262123,2.707134
105.286697,2.706851
105.311241,2.706564
105.335815,2.706354
105.360321,2.706027
105.384903,2.705805
105.409439,2.705575
105.433998,2.705326
105.458549,2.705098
105.483109,2.704797
105.507675,2.704554
105.532204,2.704296
105.556778,2.704094
105.581322,2.703879
105.605896,2.703636
105.630432,2.703395
105.655006,2.703207
105.67955,2.702935
105.704094,2.702849
105.72863,2.702585
105.753189,2.702418
105.777748,2.702143
105.802307,2.701958
105.826881,2.701844
105.851418,2.701544
105.875977,2.701434
105.900513,2.701214
105.925087,2.700979
105.949631,2.700866
105.974205,2.700717
105.998741,2.700462
106.023315,2.70028
106.047829,2.700176
106.072395,2.699972
106.096954,2.699809
106.121498,2.699641
106.146072,2.699462
106.170616,2.699331
106.19519,2.699155
106.219711,2.698977
106.244286,2.698822
106.268822,2.698642
106.293396,2.698416
106.31794,2.698305
106.342514,2.698115
106.36705,2.697963
106.391579,2.697814
106.416153,2.69771
106.440697,2.697448
106.465271,2.697284
106.489807,2.697129
106.514381,2.696936
106.538925,2.696778
106.563477,2.696617
106.58802,2.696424
106.612595,2.696201
106.637131,2.696111
106.661697,2.695919
106.686249,2.695631
106.7108,2.695453
106.735352,2.695294
106.759888,2.695159
106.784462,2.694835
106.809006,2.694642
106.83358,2.694447
106.858116,2.694208
106.88269,2.694011
106.907211,2.69382
106.931786,2.693601
106.956329,2.693316
106.980881,2.693013
107.00544,2.692874
107.029999,2.692622
107.054565,2.692329
107.079086,2.692057
107.103661,2.691771
107.128197,2.691523
107.152771,2.691212
107.177315,2.691013
107.201889,2.690718
107.226425,2.690431
107.250984,2.690132
107.27552,2.68983
107.300079,2.689567
107.324638,2.689254
107.34919,2.688973
107.373772,2.688663
107.398308,2.688374
107.422852,2.688071
107.447395,2.687716
107.47197,2.68741
107.496506,2.68712
107.52108,2.686811
107.545624,2.686574
107.570198,2.686125
107.594719,2.685932
107.61927,2.685556
107.643837,2.685305
107.668388,2.685036
107.692963,2.684697
107.717499,2.684403
107.742081,2.684123
107.766586,2.683803
107.791161,2.683491
107.815704,2.683218
107.840279,2.682881
107.864815,2.682618
107.889381,2.682409
107.913933,2.682122
107.938469,2.681817
107.963043,2.68151
107.987579,2.681252
108.012161,2.68103
108.036697,2.68073
108.061272,2.680508
108.085808,2.680192
108.110359,2.680021
108.134895,2.67972
108.15947,2.679537
108.184013,2.679267
108.208565,2.679044
108.233124,2.678812
108.257683,2.67849
108.282242,2.678314
108.306778,2.678051
108.331352,2.677793
108.355888,2.677614
108.38047,2.677359
108.405006,2.677113
108.429581,2.676923
108.454094,2.676687
108.478668,2.67644
108.503204,2.676194
108.527763,2.676037
108.552322,2.675838
108.576874,2.675611
108.601456,2.675363
108.625969,2.675181
108.650551,2.675004
108.675087,2.674813
108.699661,2.674512
108.724197,2.674375
108.748779,2.674147
108.773315,2.673857
108.797859,2.673639
108.822403,2.673495
108.846954,2.673273
108.871521,2.673035
108.896072,2.672858
108.920647,2.672698
108.945183,2.672393
108.969742,2.67219
108.994278,2.671968
109.01886,2.671697
109.043396,2.671591
109.06797,2.671362
109.092506,2.671147
109.117088,2.670847
109.141594,2.670651
109.166153,2.670426
109.190727,2.670183
109.215263,2.669986
109.239845,2.669698
109.264381,2.669531
109.288956,2.669245
109.313477,2.668987
109.338051,2.668751
109.362587,2.668522
109.387169,2.668233
109.411705,2.667984
109.436272,2.66765
109.460815,2.667418
109.485344,2.667109
109.509926,2.666872
109.534462,2.666605
109.559036,2.666317
109.583572,2.665988
109.608154,2.665739
109.63269,2.665349
109.657249,2.665038
109.681786,2.664812
109.70636,2.66452
109.730896,2.664211
109.755455,2.663832
109.780014,2.663559
109.804573,2.663258
109.829117,2.662901
109.853653,2.662653
109.878235,2.662263
109.902771,2.661953
109.927345,2.66158
109.951881,2.661304
109.976463,2.660896
110.000977,2.660632
110.025558,2.660293
110.050095,2.65996
110.074654,2.659568
110.099205,2.659214
110.123764,2.658892
110.148338,2.658558
110.172852,2.65821
110.197426,2.657843
110.221962,2.657568
110.246544,2.65722
110.27108,2.656892
110.295654,2.656543
110.320198,2.656185
110.344749,2.655863
110.369293,2.655533
110.393845,2.655228
110.418411,2.654999
110.442963,2.654583
110.467537,2.654228
110.492073,2.653883
110.516624,2.653663
110.541161,2.653252
110.565735,2.653008
110.590279,2.652726
110.614853,2.65241
110.639389,2.652092
110.663956,2.651783
110.688484,2.651562
110.713043,2.651278
110.737617,2.651003
110.762154,2.650702
110.786736,2.65048
110.811272,2.650226
110.835846,2.649879
110.860359,2.649608
110.884933,2.649345
110.90947,2.649054
110.934044,2.648812
110.958588,2.648502
110.983139,2.648296
111.007698,2.647981
111.032234,2.647689
111.056816,2.647441
111.081352,2.647171
111.105927,2.646963
111.130463,2.646745
111.155045,2.64654
111.179581,2.646225
111.204124,2.645977
111.228668,2.645722
111.253235,2.64544
111.277779,2.645123
111.302338,2.644911
111.326897,2.644696
111.351448,2.644471
111.376007,2.644192
111.400543,2.643971
111.425125,2.643684
111.449661,2.643505
111.474236,2.643271
111.498772,2.642996
111.523354,2.642782
111.547859,2.642491
111.572433,2.642201
111.596977,2.64197
111.621529,2.641633
111.646095,2.641342
111.670647,2.641063
111.695221,2.640847
111.719742,2.640581
111.744316,2.640324
111.768852,2.640031
