"Piezo Voltage (V)";"Fine In 1 (V)";
85.728294;2.920864;
85.752785;2.920522;
85.777267;2.920271;
85.801788;2.920126;
85.826271;2.919964;
85.850777;2.919830;
85.875290;2.919716;
85.899803;2.919602;
85.924286;2.919474;
85.948769;2.919365;
85.973297;2.919267;
85.997780;2.919059;
86.022285;2.918951;
86.046806;2.918788;
86.071312;2.918566;
86.095795;2.918392;
86.120277;2.918300;
86.144806;2.918084;
86.169289;2.917976;
86.193794;2.917790;
86.218315;2.917670;
86.242813;2.917500;
86.267303;2.917298;
86.291786;2.917135;
86.316307;2.916937;
86.340797;2.916650;
86.365295;2.916439;
86.389824;2.916281;
86.414322;2.916031;
86.438812;2.915813;
86.463295;2.915520;
86.487816;2.915241;
86.512306;2.915046;
86.536804;2.914813;
86.561333;2.914493;
86.585823;2.914158;
86.610313;2.913976;
86.634796;2.913707;
86.659325;2.913446;
86.683800;2.913048;
86.708313;2.912756;
86.732834;2.912477;
86.757332;2.912117;
86.781822;2.911804;
86.806305;2.911479;
86.830833;2.911123;
86.855309;2.910726;
86.879822;2.910437;
86.904343;2.910078;
86.928833;2.909730;
86.953331;2.909337;
86.977821;2.909065;
87.002327;2.908607;
87.026817;2.908287;
87.051323;2.907894;
87.075851;2.907530;
87.100342;2.907093;
87.124840;2.906769;
87.149323;2.906348;
87.173836;2.906024;
87.198326;2.905695;
87.222832;2.905263;
87.247360;2.904802;
87.271835;2.904489;
87.296349;2.904165;
87.320839;2.903707;
87.345345;2.903338;
87.369827;2.902989;
87.394341;2.902665;
87.418854;2.902222;
87.443344;2.901976;
87.467850;2.901597;
87.492348;2.901140;
87.516853;2.900761;
87.541336;2.900341;
87.565849;2.900025;
87.590363;2.899702;
87.614853;2.899376;
87.639359;2.898933;
87.663857;2.898658;
87.688362;2.898301;
87.712845;2.897900;
87.737358;2.897580;
87.761871;2.897212;
87.786354;2.896979;
87.810867;2.896730;
87.835365;2.896376;
87.859863;2.896081;
87.884354;2.895770;
87.908852;2.895512;
87.933380;2.895220;
87.957863;2.894987;
87.982376;2.894787;
88.006874;2.894474;
88.031372;2.894221;
88.055862;2.893888;
88.080360;2.893631;
88.104889;2.893434;
88.129372;2.893203;
88.153870;2.893001;
88.178375;2.892723;
88.202881;2.892593;
88.227364;2.892391;
88.251869;2.892166;
88.276390;2.891963;
88.300880;2.891844;
88.325378;2.891647;
88.349884;2.891417;
88.374390;2.891320;
88.398872;2.891227;
88.423378;2.890978;
88.447899;2.890843;
88.472389;2.890714;
88.496887;2.890582;
88.521393;2.890426;
88.545891;2.890303;
88.570381;2.890156;
88.594879;2.889966;
88.619408;2.889815;
88.643890;2.889743;
88.668396;2.889579;
88.692902;2.889375;
88.717400;2.889310;
88.741890;2.889193;
88.766388;2.889102;
88.790916;2.888931;
88.815399;2.888775;
88.839905;2.888691;
88.864410;2.888539;
88.888908;2.888339;
88.913399;2.888281;
88.937897;2.888078;
88.962418;2.887869;
88.986908;2.887715;
89.011406;2.887532;
89.035904;2.887454;
89.060417;2.887167;
89.084900;2.887089;
89.109406;2.886796;
89.133926;2.886670;
89.158417;2.886487;
89.182915;2.886315;
89.207413;2.886109;
89.231926;2.885881;
89.256409;2.885601;
89.280914;2.885415;
89.305435;2.885219;
89.329918;2.884940;
89.354424;2.884660;
89.378922;2.884417;
89.403427;2.884175;
89.427917;2.883815;
89.452415;2.883620;
89.476944;2.883353;
89.501427;2.883101;
89.525932;2.882809;
89.550430;2.882530;
89.574936;2.882181;
89.599426;2.881889;
89.623924;2.881454;
89.648453;2.881176;
89.672935;2.880788;
89.697433;2.880467;
89.721931;2.880129;
89.746429;2.879716;
89.770920;2.879334;
89.795433;2.878912;
89.819954;2.878579;
89.844444;2.878218;
89.868942;2.877866;
89.893440;2.877415;
89.917938;2.877027;
89.942429;2.876736;
89.966942;2.876275;
89.991463;2.875870;
90.015953;2.875512;
90.040451;2.875122;
90.064949;2.874689;
90.089439;2.874294;
90.113937;2.873816;
90.138443;2.873428;
90.162971;2.873060;
90.187447;2.872607;
90.211960;2.872210;
90.236458;2.871802;
90.260948;2.871419;
90.285446;2.871057;
90.309959;2.870566;
90.334480;2.870279;
90.358963;2.869760;
90.383469;2.869441;
90.407967;2.869032;
90.432449;2.868603;
90.456963;2.868212;
90.481468;2.867838;
90.505981;2.867416;
90.530472;2.867078;
90.554970;2.866701;
90.579468;2.866298;
90.603958;2.865978;
90.628456;2.865725;
90.652985;2.865265;
90.677490;2.864947;
90.701981;2.864607;
90.726479;2.864224;
90.750977;2.863931;
90.775467;2.863610;
90.799965;2.863285;
90.824493;2.862948;
90.848999;2.862725;
90.873474;2.862434;
90.897987;2.862161;
90.922485;2.861896;
90.946968;2.861720;
90.971474;2.861414;
90.995995;2.861164;
91.020508;2.860832;
91.044983;2.860673;
91.069496;2.860428;
91.093994;2.860186;
91.118477;2.860016;
91.142982;2.859783;
91.167503;2.859567;
91.192017;2.859416;
91.216492;2.859246;
91.241005;2.859002;
91.265495;2.858893;
91.289986;2.858732;
91.314484;2.858568;
91.339012;2.858459;
91.363510;2.858296;
91.388000;2.858114;
91.412506;2.857982;
91.437004;2.857820;
91.461494;2.857674;
91.485992;2.857537;
91.510521;2.857388;
91.535019;2.857282;
91.559509;2.857229;
91.584015;2.857041;
91.608513;2.856870;
91.633003;2.856727;
91.657501;2.856589;
91.682022;2.856488;
91.706520;2.856334;
91.731010;2.856260;
91.755524;2.856057;
91.780022;2.855946;
91.804504;2.855727;
91.829010;2.855637;
91.853531;2.855388;
91.878021;2.855207;
91.902519;2.855016;
91.927040;2.854837;
91.951530;2.854717;
91.976013;2.854496;
92.000519;2.854329;
92.025040;2.854119;
92.049530;2.853798;
92.074028;2.853624;
92.098526;2.853363;
92.123032;2.853186;
92.147522;2.852916;
92.172020;2.852783;
92.196548;2.852449;
92.221031;2.852082;
92.245537;2.851841;
92.270050;2.851569;
92.294540;2.851295;
92.319031;2.850916;
92.343529;2.850571;
92.368057;2.850261;
92.392540;2.849970;
92.417046;2.849676;
92.441559;2.849257;
92.466049;2.848893;
92.490524;2.848525;
92.515038;2.848202;
92.539558;2.847841;
92.564049;2.847471;
92.588547;2.847105;
92.613075;2.846730;
92.637558;2.846298;
92.662033;2.846045;
92.686546;2.845557;
92.711067;2.845139;
92.735558;2.844719;
92.760056;2.844341;
92.784584;2.843939;
92.809067;2.843491;
92.833542;2.843117;
92.858047;2.842686;
92.882576;2.842218;
92.907051;2.841887;
92.931564;2.841419;
92.956085;2.840896;
92.980560;2.840537;
93.005051;2.840033;
93.029556;2.839617;
93.054085;2.839180;
93.078560;2.838777;
93.103073;2.838335;
93.127594;2.837836;
93.152069;2.837466;
93.176559;2.837009;
93.201065;2.836648;
93.225578;2.836207;
93.250069;2.835752;
93.274574;2.835374;
93.299103;2.834988;
93.323578;2.834604;
93.348061;2.834186;
93.372574;2.833843;
93.397087;2.833544;
93.421577;2.833051;
93.446083;2.832763;
93.470612;2.832333;
93.495087;2.831952;
93.519569;2.831626;
93.544083;2.831339;
93.568596;2.830987;
93.593079;2.830674;
93.617592;2.830399;
93.642105;2.830030;
93.666588;2.829736;
93.691078;2.829492;
93.715576;2.829159;
93.740105;2.828941;
93.764587;2.828710;
93.789101;2.828376;
93.813614;2.828195;
93.838097;2.827940;
93.862587;2.827681;
93.887085;2.827492;
93.911613;2.827281;
93.936096;2.827105;
93.960609;2.826899;
93.985123;2.826730;
94.009605;2.826555;
94.034088;2.826391;
94.058594;2.826160;
94.083115;2.825978;
94.107605;2.825881;
94.132103;2.825733;
94.156631;2.825481;
94.181114;2.825430;
94.205597;2.825283;
94.230103;2.825114;
94.254623;2.825016;
94.279114;2.824899;
94.303612;2.824685;
94.328140;2.824538;
94.352623;2.824437;
94.377106;2.824267;
94.401604;2.824207;
94.426132;2.824083;
94.450615;2.823985;
94.475121;2.823818;
94.499641;2.823643;
94.524124;2.823515;
94.548615;2.823363;
94.573112;2.823249;
94.597641;2.823084;
94.622124;2.822839;
94.646629;2.822697;
94.671150;2.822464;
94.695625;2.822312;
94.720123;2.822112;
94.744621;2.821886;
94.769142;2.821664;
94.793633;2.821501;
94.818130;2.821292;
94.842659;2.821059;
94.867134;2.820903;
94.891624;2.820679;
94.916130;2.820344;
94.940651;2.820117;
94.965141;2.819837;
94.989639;2.819569;
95.014168;2.819221;
95.038628;2.818911;
95.063133;2.818623;
95.087646;2.818267;
95.112160;2.818001;
95.136650;2.817632;
95.161148;2.817390;
95.185669;2.816979;
95.210136;2.816600;
95.234642;2.816237;
95.259140;2.815814;
95.283669;2.815435;
95.308151;2.815092;
95.332657;2.814625;
95.357178;2.814163;
95.381638;2.813850;
95.406151;2.813376;
95.430656;2.812931;
95.455177;2.812388;
95.479660;2.811966;
95.504166;2.811553;
95.528687;2.811150;
95.553146;2.810728;
95.577644;2.810211;
95.602165;2.809760;
95.626678;2.809299;
95.651169;2.808876;
95.675667;2.808393;
95.700195;2.807913;
95.724655;2.807592;
95.749153;2.807021;
95.773682;2.806539;
95.798187;2.805983;
95.822678;2.805511;
95.847176;2.805123;
95.871704;2.804593;
95.896164;2.804121;
95.920662;2.803633;
95.945183;2.803249;
95.969696;2.802750;
95.994171;2.802273;
96.018684;2.801807;
96.043205;2.801440;
96.067665;2.800999;
96.092171;2.800550;
96.116692;2.800156;
96.141205;2.799755;
96.165680;2.799395;
96.190193;2.798850;
96.214714;2.798464;
96.239174;2.798098;
96.263680;2.797663;
96.288200;2.797319;
96.312698;2.796944;
96.337189;2.796567;
96.361694;2.796368;
96.386223;2.795861;
96.410683;2.795501;
96.435181;2.795308;
96.459709;2.795021;
96.484207;2.794669;
96.508698;2.794392;
96.533203;2.794016;
96.557732;2.793799;
96.582191;2.793588;
96.606689;2.793293;
96.631218;2.793003;
96.655708;2.792713;
96.680206;2.792507;
96.704712;2.792237;
96.729225;2.791993;
96.753693;2.791802;
96.778198;2.791560;
96.802719;2.791354;
96.827217;2.791142;
96.851707;2.790916;
96.876228;2.790757;
96.900734;2.790557;
96.925201;2.790298;
96.949707;2.790145;
96.974228;2.789951;
96.998718;2.789736;
97.023216;2.789542;
97.047737;2.789301;
97.072243;2.789040;
97.096710;2.788903;
97.121208;2.788802;
97.145737;2.788551;
97.170227;2.788320;
97.194725;2.788046;
97.219238;2.787899;
97.243752;2.787605;
97.268219;2.787390;
97.292717;2.787179;
97.317245;2.786946;
97.341728;2.786773;
97.366234;2.786498;
97.390747;2.786248;
97.415260;2.785952;
97.439728;2.785669;
97.464226;2.785371;
97.488747;2.785068;
97.513237;2.784763;
97.537735;2.784510;
97.562263;2.784194;
97.586761;2.783898;
97.611221;2.783573;
97.635735;2.783279;
97.660255;2.782886;
97.684746;2.782553;
97.709244;2.782151;
97.733772;2.781787;
97.758270;2.781391;
97.782730;2.780966;
97.807243;2.780587;
97.831764;2.780216;
97.856255;2.779762;
97.880753;2.779292;
97.905273;2.778984;
97.929779;2.778462;
97.954239;2.778029;
97.978745;2.777495;
98.003273;2.777035;
98.027748;2.776514;
98.052261;2.776025;
98.076782;2.775538;
98.101288;2.775024;
98.125748;2.774514;
98.150253;2.774079;
98.178986;2.773538;
98.199257;2.772928;
98.223770;2.772437;
98.248291;2.771988;
98.272789;2.771402;
98.297249;2.770842;
98.321762;2.770326;
98.346275;2.769790;
98.370766;2.769248;
98.395271;2.768643;
98.419800;2.768102;
98.444290;2.767571;
98.468758;2.767097;
98.493271;2.766494;
98.517784;2.766001;
98.542274;2.765499;
98.566780;2.765005;
98.591309;2.764415;
98.615799;2.763951;
98.640266;2.763461;
98.664764;2.762927;
98.689293;2.762419;
98.713776;2.761893;
98.738289;2.761422;
98.762802;2.760877;
98.787292;2.760425;
98.811775;2.760020;
98.836273;2.759569;
98.860802;2.759160;
98.885284;2.758718;
98.909798;2.758285;
98.934311;2.757865;
98.958801;2.757405;
98.983284;2.757033;
99.007782;2.756649;
99.032310;2.756290;
99.056793;2.755855;
99.081291;2.755425;
99.105820;2.755227;
99.130302;2.754848;
99.154785;2.754489;
99.179291;2.754207;
99.203812;2.753884;
99.228302;2.753596;
99.252800;2.753266;
99.277328;2.753039;
99.301811;2.752727;
99.326294;2.752489;
99.350800;2.752271;
99.375320;2.751981;
99.399811;2.751744;
99.424309;2.751490;
99.448830;2.751312;
99.473320;2.751119;
99.497803;2.750804;
99.522301;2.750644;
99.546829;2.750356;
99.571312;2.750161;
99.595818;2.749906;
99.620338;2.749686;
99.644829;2.749516;
99.669312;2.749306;
99.693810;2.748939;
99.718338;2.748704;
99.742821;2.748500;
99.767326;2.748310;
99.791847;2.748031;
99.816322;2.747796;
99.840813;2.747497;
99.865318;2.747258;
99.889839;2.747091;
99.914330;2.746815;
99.938828;2.746546;
99.963356;2.746185;
99.987816;2.745876;
100.012321;2.745541;
100.036835;2.745253;
100.061348;2.744950;
100.085838;2.744558;
100.110336;2.744225;
100.134865;2.743892;
100.159325;2.743437;
100.183830;2.743152;
100.208344;2.742730;
100.232857;2.742343;
100.257339;2.741947;
100.281845;2.741488;
100.306366;2.741066;
100.330826;2.740675;
100.355339;2.740121;
100.379845;2.739715;
100.404366;2.739230;
100.428848;2.738717;
100.453354;2.738333;
100.477875;2.737718;
100.502335;2.737246;
100.526848;2.736744;
100.551353;2.736200;
100.575874;2.735632;
100.600357;2.735060;
100.624855;2.734569;
100.649384;2.733939;
100.673843;2.733429;
100.698341;2.732865;
100.722870;2.732260;
100.747375;2.731748;
100.771866;2.731147;
100.796364;2.730629;
100.820892;2.729939;
100.845352;2.729415;
100.869850;2.728847;
100.894379;2.728174;
100.918884;2.727621;
100.943375;2.727040;
100.967873;2.726430;
100.992393;2.725876;
101.016853;2.725302;
101.041359;2.724719;
101.065880;2.724182;
101.090393;2.723520;
101.114868;2.722984;
101.139381;2.722444;
101.163902;2.721836;
101.188362;2.721334;
101.212868;2.720821;
101.237389;2.720269;
101.261887;2.719764;
101.286377;2.719210;
101.310890;2.718755;
101.335411;2.718263;
101.359871;2.717804;
101.384369;2.717295;
101.408897;2.716788;
101.433395;2.716455;
101.457886;2.715858;
101.482391;2.715475;
101.506920;2.715120;
101.531380;2.714725;
101.555878;2.714298;
101.580406;2.713917;
101.604897;2.713596;
101.629395;2.713186;
101.653900;2.712838;
101.678429;2.712524;
101.702888;2.712250;
101.727386;2.712034;
101.751915;2.711634;
101.776405;2.711311;
101.800896;2.711094;
101.825409;2.710815;
101.849922;2.710552;
101.874390;2.710365;
101.898895;2.710024;
101.923416;2.709818;
101.947906;2.709557;
101.972404;2.709325;
101.996925;2.709115;
102.021431;2.708962;
102.045898;2.708757;
102.070404;2.708633;
102.094925;2.708385;
102.119415;2.708179;
102.143913;2.707988;
102.168427;2.707857;
102.192940;2.707584;
102.217407;2.707411;
102.241905;2.707241;
102.266434;2.707095;
102.290916;2.706906;
102.315422;2.706772;
102.339935;2.706455;
102.364449;2.706334;
102.388916;2.706047;
102.413414;2.705823;
102.437943;2.705673;
102.462425;2.705399;
102.486931;2.705141;
102.511452;2.704996;
102.535957;2.704668;
102.560410;2.704319;
102.584923;2.704048;
102.609444;2.703805;
102.633934;2.703526;
102.658432;2.703201;
102.682961;2.702870;
102.707458;2.702529;
102.731918;2.702078;
102.756432;2.701690;
102.780952;2.701419;
102.805443;2.700980;
102.829941;2.700603;
102.854469;2.700198;
102.878967;2.699814;
102.903427;2.699367;
102.927940;2.698929;
102.952461;2.698485;
102.976936;2.698010;
103.001450;2.697531;
103.025970;2.697015;
103.050476;2.696502;
103.074936;2.696070;
103.099442;2.695524;
103.123970;2.695045;
103.148445;2.694501;
103.172958;2.693943;
103.197479;2.693386;
103.221977;2.692870;
103.246445;2.692307;
103.270950;2.691724;
103.295479;2.691149;
103.319954;2.690640;
103.344460;2.690002;
103.368988;2.689416;
103.393486;2.688946;
103.417946;2.688351;
103.442459;2.687723;
103.466972;2.687217;
103.491463;2.686672;
103.515968;2.686115;
103.540497;2.685519;
103.564987;2.684995;
103.589455;2.684434;
103.613968;2.683900;
103.638481;2.683361;
103.662971;2.682815;
103.687477;2.682345;
103.712006;2.681879;
103.736481;2.681348;
103.760963;2.680849;
103.785477;2.680314;
103.809990;2.679922;
103.834473;2.679451;
103.858986;2.678989;
103.883499;2.678540;
103.907990;2.678086;
103.932472;2.677618;
103.956985;2.677291;
103.981499;2.676886;
104.005981;2.676470;
104.030495;2.676201;
104.055008;2.675815;
104.079498;2.675525;
104.103981;2.675149;
104.128502;2.674883;
104.153000;2.674577;
104.177490;2.674208;
104.201988;2.673905;
104.226517;2.673751;
104.250999;2.673540;
104.275482;2.673265;
104.300003;2.673067;
104.324509;2.672844;
104.348999;2.672648;
104.373497;2.672473;
104.398026;2.672282;
104.422508;2.672118;
104.446991;2.672023;
104.471519;2.671896;
104.496017;2.671715;
104.520500;2.671531;
104.545006;2.671391;
104.569527;2.671298;
104.594017;2.671127;
104.618500;2.670950;
104.643021;2.670895;
104.667526;2.670759;
104.692009;2.670589;
104.716515;2.670437;
104.741035;2.670223;
104.765526;2.670082;
104.790009;2.669937;
104.814529;2.669796;
104.839035;2.669616;
104.863518;2.669552;
104.888016;2.669332;
104.912544;2.669110;
104.937027;2.668941;
104.961510;2.668689;
104.986038;2.668542;
105.010536;2.668275;
105.035027;2.668018;
105.059525;2.667781;
105.084053;2.667536;
105.108536;2.667281;
105.133018;2.666985;
105.157547;2.666741;
105.182045;2.666354;
105.206535;2.666030;
105.231033;2.665635;
105.255562;2.665391;
105.280045;2.664996;
105.304527;2.664694;
105.329041;2.664323;
105.353554;2.663908;
105.378036;2.663427;
105.402542;2.663034;
105.427063;2.662601;
105.451553;2.662191;
105.476036;2.661651;
105.500549;2.661254;
105.525063;2.660748;
105.549545;2.660190;
105.574051;2.659751;
105.598572;2.659272;
105.623062;2.658723;
105.647545;2.658266;
105.672058;2.657746;
105.696564;2.657193;
105.721054;2.656684;
105.745552;2.656107;
105.770081;2.655672;
105.794563;2.655162;
105.819038;2.654587;
105.843567;2.654177;
105.868073;2.653518;
105.892563;2.652981;
105.917061;2.652420;
105.941589;2.651910;
105.966072;2.651383;
105.990547;2.650897;
106.015076;2.650349;
106.039581;2.649858;
106.064056;2.649245;
106.088570;2.648712;
106.113091;2.648296;
106.137581;2.647789;
106.162056;2.647336;
106.186577;2.646903;
106.211090;2.646379;
106.235565;2.645912;
106.260078;2.645476;
106.284599;2.644956;
106.309090;2.644580;
106.333565;2.644162;
106.358086;2.643711;
106.382584;2.643344;
106.407074;2.643029;
106.431587;2.642598;
106.456108;2.642331;
106.480583;2.641994;
106.505066;2.641615;
106.529594;2.641332;
106.554085;2.641101;
106.578583;2.640737;
106.603088;2.640473;
106.627617;2.640160;
106.652092;2.639961;
106.676575;2.639685;
106.701103;2.639452;
106.725594;2.639304;
106.750092;2.639087;
106.774597;2.638848;
106.799126;2.638669;
106.823601;2.638530;
106.848083;2.638327;
106.872604;2.638196;
106.897095;2.637960;
106.921593;2.637832;
106.946114;2.637681;
106.970619;2.637555;
106.995110;2.637447;
107.019592;2.637321;
107.044113;2.637204;
107.068604;2.636982;
107.093102;2.636916;
107.117622;2.636771;
107.142128;2.636586;
107.166618;2.636519;
107.191101;2.636336;
107.215622;2.636152;
107.240105;2.636023;
107.264610;2.635879;
107.289124;2.635710;
107.313637;2.635475;
107.338120;2.635272;
107.362602;2.635106;
107.387131;2.634959;
107.411613;2.634744;
107.436119;2.634488;
107.460632;2.634309;
107.485146;2.634010;
107.509628;2.633749;
107.534111;2.633463;
107.558640;2.633163;
107.583122;2.632911;
107.607628;2.632629;
107.632149;2.632322;
107.656647;2.631953;
107.681137;2.631639;
107.705620;2.631290;
107.730141;2.631018;
107.754631;2.630513;
107.779129;2.630187;
107.803658;2.629786;
107.828156;2.629357;
107.852646;2.628906;
107.877129;2.628448;
107.901649;2.628016;
107.926140;2.627486;
107.950638;2.627000;
107.975166;2.626510;
107.999664;2.626099;
108.024147;2.625624;
108.048630;2.625123;
108.073158;2.624576;
108.097633;2.624072;
108.122147;2.623549;
108.146667;2.622958;
108.171165;2.622504;
108.195656;2.621961;
108.220139;2.621508;
108.244667;2.620913;
108.269142;2.620348;
108.293655;2.619873;
108.318176;2.619350;
108.342674;2.618809;
108.367165;2.618207;
108.391647;2.617725;
108.416161;2.617143;
108.440651;2.616669;
108.465157;2.616199;
108.489685;2.615776;
108.514175;2.615171;
108.538673;2.614735;
108.563156;2.614233;
