"Piezo Voltage (V)";"Fine In 1 (V)";
85.728119;2.892601;
85.752617;2.892363;
85.777115;2.892038;
85.801605;2.891774;
85.826103;2.891522;
85.850624;2.891128;
85.875114;2.890772;
85.899612;2.890440;
85.924118;2.890108;
85.948624;2.889771;
85.973106;2.889431;
85.997612;2.889071;
86.022133;2.888775;
86.046623;2.888403;
86.071121;2.888041;
86.095627;2.887667;
86.120132;2.887317;
86.144615;2.886894;
86.169121;2.886598;
86.193642;2.886183;
86.218132;2.885828;
86.242630;2.885478;
86.267136;2.885180;
86.291634;2.884790;
86.316124;2.884431;
86.340622;2.884114;
86.365150;2.883698;
86.389633;2.883409;
86.414139;2.883060;
86.438644;2.882668;
86.463142;2.882407;
86.487633;2.882030;
86.512131;2.881701;
86.536659;2.881302;
86.561142;2.881076;
86.585648;2.880695;
86.610153;2.880394;
86.634651;2.880001;
86.659134;2.879712;
86.683640;2.879447;
86.708160;2.879143;
86.732651;2.878850;
86.757149;2.878523;
86.781647;2.878253;
86.806160;2.877981;
86.830643;2.877666;
86.855148;2.877479;
86.879669;2.877226;
86.904160;2.876939;
86.928658;2.876701;
86.953156;2.876511;
86.977661;2.876215;
87.002151;2.875994;
87.026649;2.875824;
87.051178;2.875593;
87.075661;2.875440;
87.100166;2.875239;
87.124664;2.874942;
87.149170;2.874786;
87.173660;2.874658;
87.198158;2.874399;
87.222687;2.874205;
87.247169;2.874064;
87.271675;2.873981;
87.296173;2.873836;
87.320663;2.873722;
87.345169;2.873520;
87.369667;2.873403;
87.394188;2.873277;
87.418678;2.873106;
87.443176;2.873005;
87.467674;2.872932;
87.492165;2.872722;
87.516663;2.872694;
87.541183;2.872607;
87.565697;2.872444;
87.590187;2.872336;
87.614685;2.872239;
87.639183;2.872088;
87.663673;2.872058;
87.688171;2.871980;
87.712692;2.871802;
87.737206;2.871703;
87.761696;2.871661;
87.786194;2.871569;
87.810692;2.871464;
87.835175;2.871408;
87.859680;2.871310;
87.884193;2.871160;
87.908714;2.871117;
87.933189;2.870900;
87.957703;2.870806;
87.982201;2.870713;
88.006683;2.870572;
88.031189;2.870459;
88.055702;2.870272;
88.080223;2.870091;
88.104698;2.869971;
88.129211;2.869781;
88.153709;2.869637;
88.178192;2.869374;
88.202690;2.869221;
88.227219;2.869034;
88.251717;2.868850;
88.276207;2.868619;
88.300713;2.868493;
88.325211;2.868293;
88.349701;2.868005;
88.374199;2.867740;
88.398727;2.867496;
88.423225;2.867262;
88.447716;2.866907;
88.472221;2.866719;
88.496719;2.866424;
88.521210;2.866115;
88.545708;2.865880;
88.570229;2.865618;
88.594734;2.865272;
88.619217;2.864972;
88.643730;2.864657;
88.668228;2.864368;
88.692711;2.864106;
88.717216;2.863711;
88.741737;2.863353;
88.766235;2.862965;
88.790726;2.862607;
88.815239;2.862260;
88.839737;2.861859;
88.864220;2.861546;
88.888725;2.861140;
88.913246;2.860790;
88.937744;2.860416;
88.962234;2.860043;
88.986732;2.859657;
89.011238;2.859343;
89.035728;2.858919;
89.060226;2.858558;
89.084755;2.858145;
89.109245;2.857671;
89.133743;2.857291;
89.158241;2.856900;
89.182747;2.856458;
89.207237;2.856110;
89.231735;2.855717;
89.256264;2.855275;
89.280754;2.854854;
89.305252;2.854545;
89.329750;2.854115;
89.354256;2.853646;
89.378731;2.853386;
89.403244;2.853021;
89.427765;2.852601;
89.452255;2.852219;
89.476753;2.851815;
89.501274;2.851414;
89.525764;2.851084;
89.550240;2.850814;
89.574753;2.850490;
89.599274;2.850121;
89.623764;2.849755;
89.648262;2.849467;
89.672791;2.849084;
89.697273;2.848713;
89.721748;2.848516;
89.746254;2.848087;
89.770782;2.847831;
89.795258;2.847536;
89.819771;2.847235;
89.844276;2.846989;
89.868767;2.846746;
89.893257;2.846524;
89.917763;2.846202;
89.942291;2.845907;
89.966766;2.845678;
89.991280;2.845506;
90.015800;2.845226;
90.040276;2.845012;
90.064766;2.844875;
90.089272;2.844616;
90.113800;2.844440;
90.138275;2.844252;
90.162781;2.844032;
90.187309;2.843863;
90.211784;2.843825;
90.236267;2.843577;
90.260780;2.843408;
90.285294;2.843269;
90.309792;2.843060;
90.334290;2.842931;
90.358818;2.842904;
90.383301;2.842791;
90.407776;2.842662;
90.432289;2.842597;
90.456810;2.842342;
90.481300;2.842208;
90.505798;2.842067;
90.530319;2.842039;
90.554794;2.841840;
90.579285;2.841710;
90.603790;2.841630;
90.628319;2.841496;
90.652794;2.841435;
90.677307;2.841312;
90.701828;2.841188;
90.726303;2.841038;
90.750793;2.840861;
90.775299;2.840832;
90.799828;2.840715;
90.824303;2.840549;
90.848816;2.840429;
90.873337;2.840286;
90.897812;2.840152;
90.922295;2.840020;
90.946808;2.839845;
90.971321;2.839684;
90.995811;2.839467;
91.020317;2.839314;
91.044846;2.839159;
91.069321;2.838964;
91.093803;2.838794;
91.118317;2.838535;
91.142830;2.838228;
91.167320;2.837968;
91.191826;2.837850;
91.216354;2.837599;
91.240829;2.837443;
91.265312;2.837129;
91.289810;2.836879;
91.314339;2.836635;
91.338821;2.836353;
91.363335;2.836072;
91.387848;2.835757;
91.412331;2.835455;
91.436821;2.835143;
91.461319;2.834880;
91.485847;2.834538;
91.510330;2.834201;
91.534843;2.833840;
91.559357;2.833478;
91.583839;2.833100;
91.608330;2.832819;
91.632828;2.832404;
91.657356;2.832049;
91.681839;2.831677;
91.706337;2.831333;
91.730865;2.830926;
91.755348;2.830579;
91.779831;2.830139;
91.804337;2.829759;
91.828857;2.829383;
91.853348;2.829000;
91.877846;2.828554;
91.902374;2.828167;
91.926849;2.827710;
91.951340;2.827336;
91.975845;2.826898;
92.000366;2.826476;
92.024857;2.826011;
92.049355;2.825649;
92.073875;2.825203;
92.098358;2.824857;
92.122849;2.824420;
92.147346;2.823969;
92.171875;2.823581;
92.196358;2.823200;
92.220863;2.822811;
92.245384;2.822359;
92.269859;2.822062;
92.294357;2.821661;
92.318855;2.821232;
92.343384;2.820899;
92.367867;2.820454;
92.392372;2.820116;
92.416893;2.819739;
92.441368;2.819307;
92.465858;2.819015;
92.490372;2.818616;
92.514885;2.818304;
92.539375;2.817939;
92.563873;2.817600;
92.588402;2.817251;
92.612862;2.816933;
92.637367;2.816640;
92.661880;2.816315;
92.686394;2.816013;
92.710884;2.815739;
92.735382;2.815454;
92.759911;2.815244;
92.784370;2.814883;
92.808876;2.814682;
92.833405;2.814379;
92.857903;2.814207;
92.882385;2.813901;
92.906891;2.813648;
92.931412;2.813537;
92.955872;2.813249;
92.980385;2.813089;
93.004890;2.812823;
93.029411;2.812603;
93.053894;2.812465;
93.078400;2.812231;
93.102921;2.812114;
93.127380;2.811905;
93.151894;2.811788;
93.176407;2.811609;
93.200920;2.811479;
93.225403;2.811362;
93.249901;2.811160;
93.274429;2.811103;
93.298889;2.811007;
93.323387;2.810821;
93.347916;2.810700;
93.372421;2.810648;
93.396912;2.810382;
93.421410;2.810241;
93.445938;2.810122;
93.470398;2.810013;
93.494896;2.809906;
93.519424;2.809773;
93.543930;2.809621;
93.568420;2.809523;
93.592918;2.809389;
93.617447;2.809202;
93.641899;2.809053;
93.666405;2.808926;
93.690926;2.808796;
93.715439;2.808613;
93.739914;2.808435;
93.764427;2.808224;
93.788948;2.808065;
93.813408;2.807889;
93.837914;2.807650;
93.862434;2.807486;
93.886932;2.807215;
93.911423;2.807074;
93.935936;2.806834;
93.960457;2.806614;
93.984917;2.806291;
94.009422;2.806076;
94.033943;2.805837;
94.058434;2.805565;
94.082932;2.805320;
94.107437;2.804966;
94.131966;2.804782;
94.156425;2.804413;
94.180923;2.804166;
94.205452;2.803769;
94.229942;2.803432;
94.254440;2.803057;
94.278946;2.802753;
94.303474;2.802420;
94.327934;2.801978;
94.352432;2.801616;
94.376961;2.801286;
94.401443;2.800860;
94.425941;2.800553;
94.450462;2.800121;
94.474968;2.799723;
94.499435;2.799294;
94.523941;2.798868;
94.548462;2.798438;
94.572952;2.798055;
94.597450;2.797639;
94.621971;2.797113;
94.646477;2.796818;
94.670944;2.796373;
94.695450;2.796010;
94.719971;2.795509;
94.744461;2.795155;
94.768959;2.794670;
94.793480;2.794259;
94.817986;2.793805;
94.842453;2.793323;
94.866951;2.792941;
94.891479;2.792447;
94.915962;2.791998;
94.940468;2.791586;
94.964981;2.791162;
94.989494;2.790739;
95.013962;2.790263;
95.038460;2.789862;
95.062988;2.789408;
95.087471;2.788999;
95.111977;2.788607;
95.136497;2.788158;
95.161003;2.787789;
95.185455;2.787375;
95.209969;2.786996;
95.234489;2.786653;
95.258980;2.786275;
95.283478;2.785846;
95.308006;2.785497;
95.332504;2.785155;
95.356964;2.784717;
95.381477;2.784461;
95.405998;2.784170;
95.430489;2.783790;
95.454987;2.783468;
95.479515;2.783202;
95.504013;2.782929;
95.528473;2.782586;
95.552986;2.782215;
95.577507;2.781965;
95.601982;2.781665;
95.626495;2.781455;
95.651016;2.781187;
95.675514;2.780942;
95.699982;2.780704;
95.724487;2.780580;
95.749016;2.780266;
95.773491;2.779981;
95.798004;2.779746;
95.822525;2.779657;
95.847023;2.779441;
95.871490;2.779243;
95.895996;2.778974;
95.920525;2.778789;
95.945000;2.778594;
95.969505;2.778403;
95.994034;2.778319;
96.018524;2.778172;
96.042992;2.777968;
96.067505;2.777759;
96.092018;2.777581;
96.116508;2.777426;
96.141014;2.777245;
96.165543;2.777044;
96.190033;2.776892;
96.214500;2.776719;
96.239021;2.776591;
96.263527;2.776360;
96.288017;2.776191;
96.312523;2.776014;
96.337051;2.775831;
96.361526;2.775591;
96.386009;2.775400;
96.410522;2.775185;
96.435036;2.774948;
96.459518;2.774797;
96.484032;2.774595;
96.508545;2.774353;
96.533035;2.774054;
96.557518;2.773827;
96.582039;2.773555;
96.606544;2.773226;
96.631027;2.772976;
96.655540;2.772661;
96.680054;2.772399;
96.704544;2.772074;
96.729027;2.771713;
96.753548;2.771395;
96.778046;2.771035;
96.802536;2.770673;
96.827034;2.770267;
96.851562;2.769897;
96.876045;2.769520;
96.900528;2.769166;
96.925056;2.768768;
96.949554;2.768286;
96.974045;2.767845;
96.998543;2.767417;
97.023071;2.766943;
97.047554;2.766616;
97.072037;2.766132;
97.096565;2.765719;
97.121063;2.765314;
97.145546;2.764781;
97.170052;2.764285;
97.194572;2.763883;
97.219063;2.763395;
97.243546;2.762840;
97.268066;2.762311;
97.292572;2.761825;
97.317055;2.761212;
97.341560;2.760826;
97.366081;2.760273;
97.390572;2.759722;
97.415054;2.759216;
97.439575;2.758711;
97.464081;2.758126;
97.488564;2.757728;
97.513069;2.757188;
97.537590;2.756676;
97.562073;2.756152;
97.586555;2.755684;
97.611084;2.755172;
97.635582;2.754651;
97.660072;2.754165;
97.684570;2.753723;
97.709099;2.753253;
97.733582;2.752671;
97.758064;2.752241;
97.782593;2.751764;
97.807091;2.751378;
97.831581;2.750916;
97.856079;2.750437;
97.880608;2.749941;
97.905090;2.749563;
97.929573;2.749099;
97.954086;2.748705;
97.978600;2.748343;
98.003082;2.747875;
98.027588;2.747591;
98.052109;2.747237;
98.076599;2.746888;
98.101082;2.746550;
98.125595;2.746140;
98.150108;2.745810;
98.179016;2.745475;
98.199097;2.745091;
98.223618;2.744837;
98.248108;2.744532;
98.272591;2.744284;
98.297104;2.743882;
98.321609;2.743623;
98.346100;2.743354;
98.370598;2.743113;
98.395126;2.742843;
98.419609;2.742595;
98.444084;2.742332;
98.468613;2.742103;
98.493118;2.741850;
98.517609;2.741659;
98.542107;2.741455;
98.566635;2.741262;
98.591118;2.741059;
98.615593;2.740836;
98.640121;2.740629;
98.664627;2.740456;
98.689102;2.740228;
98.713615;2.740096;
98.738136;2.739890;
98.762627;2.739681;
98.787102;2.739485;
98.811623;2.739318;
98.836121;2.739115;
98.860611;2.738823;
98.885124;2.738712;
98.909645;2.738475;
98.934135;2.738290;
98.958611;2.738070;
98.983131;2.737859;
99.007629;2.737604;
99.032120;2.737319;
99.056641;2.737053;
99.081154;2.736814;
99.105629;2.736579;
99.130112;2.736305;
99.154640;2.736017;
99.179131;2.735758;
99.203629;2.735455;
99.228134;2.735130;
99.252663;2.734904;
99.277138;2.734473;
99.301620;2.734112;
99.326149;2.733784;
99.350639;2.733386;
99.375137;2.733053;
99.399651;2.732653;
99.424171;2.732260;
99.448647;2.731838;
99.473129;2.731466;
99.497650;2.730992;
99.522141;2.730633;
99.546638;2.730102;
99.571159;2.729620;
99.595665;2.729231;
99.620155;2.728815;
99.644638;2.728263;
99.669159;2.727732;
99.693649;2.727261;
99.718147;2.726734;
99.742676;2.726193;
99.767174;2.725702;
99.791664;2.725156;
99.816147;2.724574;
99.840668;2.724097;
99.865150;2.723493;
99.889656;2.722961;
99.914169;2.722462;
99.938683;2.721874;
99.963165;2.721272;
99.987648;2.720739;
100.012177;2.720263;
100.036659;2.719655;
100.061165;2.719103;
100.085686;2.718548;
100.110191;2.717978;
100.134674;2.717412;
100.159157;2.716761;
100.183685;2.716274;
100.208168;2.715698;
100.232674;2.715116;
100.257195;2.714557;
100.281693;2.713998;
100.306183;2.713497;
100.330666;2.712978;
100.355186;2.712398;
100.379677;2.711891;
100.404175;2.711402;
100.428703;2.710873;
100.453201;2.710462;
100.477692;2.709932;
100.502174;2.709451;
100.526695;2.709038;
100.551186;2.708674;
100.575684;2.708145;
100.600212;2.707752;
100.624702;2.707364;
100.649193;2.706931;
100.673676;2.706532;
100.698204;2.706101;
100.722679;2.705917;
100.747192;2.705455;
100.771713;2.705093;
100.796211;2.704814;
100.820702;2.704463;
100.845184;2.704300;
100.869713;2.703926;
100.894188;2.703612;
100.918701;2.703287;
100.943222;2.703111;
100.967712;2.702886;
100.992210;2.702584;
101.016701;2.702400;
101.041206;2.702127;
101.065697;2.701890;
101.090202;2.701592;
101.114731;2.701379;
101.139221;2.701244;
101.163719;2.701061;
101.188202;2.700853;
101.212715;2.700734;
101.237206;2.700456;
101.261711;2.700290;
101.286240;2.700093;
101.310715;2.699958;
101.335228;2.699768;
101.359718;2.699656;
101.384224;2.699440;
101.408714;2.699282;
101.433220;2.699113;
101.457733;2.698903;
101.482224;2.698660;
101.506729;2.698478;
101.531219;2.698204;
101.555733;2.698041;
101.580215;2.697876;
101.604729;2.697573;
101.629242;2.697373;
101.653732;2.697188;
101.678238;2.696848;
101.702736;2.696667;
101.727242;2.696411;
101.751724;2.696053;
101.776237;2.695766;
101.800751;2.695457;
101.825233;2.695114;
101.849747;2.694799;
101.874245;2.694494;
101.898743;2.694043;
101.923233;2.693662;
101.947731;2.693322;
101.972260;2.692956;
101.996742;2.692646;
102.021255;2.692145;
102.045753;2.691710;
102.070251;2.691233;
102.094742;2.690803;
102.119240;2.690341;
102.143768;2.689915;
102.168251;2.689434;
102.192749;2.688957;
102.217255;2.688447;
102.241760;2.688013;
102.266243;2.687382;
102.290749;2.686886;
102.315269;2.686391;
102.339760;2.685851;
102.364258;2.685305;
102.388763;2.684817;
102.413269;2.684287;
102.437752;2.683747;
102.462257;2.683227;
102.486778;2.682721;
102.511269;2.682162;
102.535767;2.681576;
102.560272;2.680963;
102.584770;2.680480;
102.609261;2.679932;
102.633759;2.679405;
102.658287;2.678817;
102.682770;2.678347;
102.707275;2.677753;
102.731781;2.677295;
102.756279;2.676719;
102.780769;2.676163;
102.805267;2.675613;
102.829796;2.675185;
102.854279;2.674696;
102.878784;2.674259;
102.903290;2.673732;
102.927788;2.673323;
102.952278;2.672851;
102.976776;2.672369;
103.001297;2.672015;
103.025787;2.671587;
103.050285;2.671191;
103.074783;2.670797;
103.099297;2.670357;
103.123779;2.669998;
103.148285;2.669650;
103.172806;2.669269;
103.197296;2.668886;
103.221794;2.668568;
103.246292;2.668297;
103.270805;2.667959;
103.295288;2.667691;
103.319794;2.667464;
103.344315;2.667187;
103.368797;2.666943;
103.393303;2.666725;
103.417801;2.666518;
103.442307;2.666263;
103.466797;2.666109;
103.491295;2.665848;
103.515823;2.665649;
103.540306;2.665512;
103.564812;2.665347;
103.589310;2.665154;
103.613815;2.664977;
103.638306;2.664852;
103.662804;2.664698;
103.687332;2.664584;
103.711815;2.664417;
103.736320;2.664320;
103.760811;2.664209;
103.785309;2.664092;
103.809799;2.663955;
103.834312;2.663754;
103.858833;2.663650;
103.883324;2.663515;
103.907822;2.663351;
103.932320;2.663170;
103.956818;2.663022;
103.981308;2.662918;
104.005821;2.662797;
104.030342;2.662557;
104.054832;2.662424;
104.079330;2.662257;
104.103828;2.661999;
104.128319;2.661724;
104.152817;2.661578;
104.177322;2.661240;
104.201851;2.661016;
104.226326;2.660741;
104.250839;2.660492;
104.275337;2.660254;
104.299828;2.660006;
104.324326;2.659729;
104.348831;2.659400;
104.373360;2.659084;
104.397835;2.658682;
104.422348;2.658306;
104.446846;2.657998;
104.471329;2.657572;
104.495834;2.657206;
104.520348;2.656759;
104.544853;2.656379;
104.569344;2.656011;
104.593849;2.655593;
104.618347;2.655029;
104.642838;2.654634;
104.667336;2.654136;
104.691864;2.653700;
104.716362;2.653232;
104.740852;2.652703;
104.765358;2.652257;
104.789856;2.651731;
104.814346;2.651224;
104.838844;2.650660;
104.863373;2.650105;
104.887871;2.649681;
104.912361;2.649088;
104.936867;2.648561;
104.961365;2.648043;
104.985847;2.647533;
105.010353;2.646994;
105.034874;2.646425;
105.059380;2.645925;
105.083862;2.645409;
105.108376;2.644906;
105.132874;2.644440;
105.157356;2.643827;
105.181862;2.643299;
105.206383;2.642846;
105.230888;2.642417;
105.255371;2.641899;
105.279884;2.641366;
105.304382;2.640964;
105.328865;2.640465;
105.353363;2.640057;
105.377892;2.639525;
105.402390;2.639097;
105.426880;2.638711;
105.451378;2.638268;
105.475883;2.637839;
105.500374;2.637568;
105.524872;2.637175;
105.549400;2.636795;
105.573898;2.636438;
105.598389;2.636094;
105.622887;2.635824;
105.647392;2.635464;
105.671883;2.635138;
105.696381;2.634872;
105.720901;2.634611;
105.745399;2.634284;
105.769890;2.634046;
105.794395;2.633795;
105.818901;2.633581;
105.843376;2.633466;
105.867889;2.633157;
105.892410;2.633068;
105.916908;2.632798;
105.941399;2.632720;
105.965919;2.632498;
105.990410;2.632331;
106.014885;2.632180;
106.039398;2.632175;
106.063919;2.632039;
106.088409;2.631929;
106.112907;2.631832;
106.137405;2.631630;
106.161903;2.631535;
106.186394;2.631375;
106.210899;2.631213;
106.235428;2.631156;
106.259903;2.631016;
106.284416;2.630935;
106.308922;2.630757;
106.333412;2.630665;
106.357903;2.630504;
106.382408;2.630416;
106.406937;2.630252;
106.431412;2.630126;
106.455925;2.629963;
106.480431;2.629771;
106.504921;2.629570;
106.529404;2.629443;
106.553917;2.629228;
106.578430;2.629055;
106.602921;2.628862;
106.627426;2.628632;
106.651955;2.628442;
106.676430;2.628142;
106.700912;2.627899;
106.725426;2.627553;
106.749939;2.627326;
106.774429;2.627039;
106.798935;2.626685;
106.823463;2.626430;
106.847939;2.626034;
106.872421;2.625707;
106.896919;2.625308;
106.921448;2.624934;
106.945930;2.624521;
106.970444;2.624121;
106.994957;2.623703;
107.019440;2.623307;
107.043930;2.622956;
107.068428;2.622406;
107.092957;2.621941;
107.117439;2.621479;
107.141953;2.620986;
107.166466;2.620445;
107.190948;2.620012;
107.215439;2.619526;
107.239937;2.619005;
107.264458;2.618478;
107.288948;2.617944;
107.313446;2.617460;
107.337975;2.616982;
107.362457;2.616445;
107.386940;2.615954;
107.411446;2.615455;
107.435966;2.614898;
107.460457;2.614430;
107.484955;2.613871;
107.509483;2.613372;
107.533966;2.612891;
107.558449;2.612381;
107.582954;2.611858;
107.607475;2.611329;
107.631966;2.610780;
107.656464;2.610267;
107.680984;2.609713;
107.705467;2.609335;
107.729958;2.608945;
107.754456;2.608479;
107.778984;2.607990;
107.803467;2.607512;
107.827972;2.607142;
107.852493;2.606657;
107.876976;2.606351;
107.901466;2.605894;
107.925964;2.605484;
107.950493;2.605157;
107.974976;2.604820;
107.999481;2.604468;
108.024002;2.604056;
108.048485;2.603817;
108.072968;2.603467;
108.097473;2.603209;
108.121994;2.602965;
108.146484;2.602731;
108.170982;2.602425;
108.195511;2.602247;
108.219994;2.601973;
108.244476;2.601816;
108.268982;2.601563;
108.293503;2.601388;
108.317993;2.601241;
108.342491;2.601105;
108.367020;2.600927;
108.391502;2.600805;
108.415985;2.600654;
108.440483;2.600540;
108.465012;2.600358;
108.489494;2.600258;
108.514000;2.600148;
108.538521;2.600011;
108.563004;2.599961;
