"Piezo Voltage (V)";"Fine In 1 (V)";
80.118881;2.748171;
80.158096;2.747789;
80.197266;2.747407;
80.236481;2.746958;
80.275681;2.746535;
80.314888;2.746067;
80.354103;2.745627;
80.393311;2.745168;
80.432526;2.744734;
80.471695;2.744297;
80.510910;2.743958;
80.550110;2.743507;
80.589325;2.743068;
80.628532;2.742686;
80.667740;2.742160;
80.706955;2.741762;
80.746140;2.741375;
80.785339;2.740938;
80.824539;2.740532;
80.863754;2.740150;
80.902962;2.739733;
80.942177;2.739369;
80.981384;2.739019;
81.020561;2.738607;
81.059769;2.738312;
81.098969;2.737968;
81.138184;2.737581;
81.177391;2.737244;
81.216606;2.737000;
81.255814;2.736611;
81.294991;2.736354;
81.334213;2.736163;
81.373413;2.735859;
81.412613;2.735515;
81.451828;2.735266;
81.491035;2.735046;
81.530243;2.734798;
81.569420;2.734563;
81.608627;2.734333;
81.647842;2.734127;
81.687042;2.733959;
81.726257;2.733780;
81.765465;2.733460;
81.804680;2.733252;
81.843849;2.733157;
81.883057;2.732819;
81.922272;2.732725;
81.961472;2.732497;
82.000687;2.732277;
82.039894;2.732032;
82.079109;2.731877;
82.118279;2.731682;
82.157494;2.731447;
82.196701;2.731286;
82.235916;2.731050;
82.275116;2.730791;
82.314323;2.730540;
82.353539;2.730280;
82.392708;2.730067;
82.431923;2.729677;
82.471130;2.729417;
82.510345;2.729113;
82.549545;2.728748;
82.588760;2.728468;
82.627968;2.728155;
82.667168;2.727797;
82.706352;2.727430;
82.745560;2.727037;
82.784775;2.726624;
82.823975;2.726169;
82.863190;2.725823;
82.902397;2.725376;
82.941574;2.724889;
82.980782;2.724462;
83.019997;2.724030;
83.059204;2.723560;
83.098404;2.722992;
83.137619;2.722524;
83.176826;2.722048;
83.216003;2.721448;
83.255226;2.721031;
83.294426;2.720514;
83.333633;2.720011;
83.372849;2.719475;
83.412048;2.719039;
83.451263;2.718490;
83.490433;2.717968;
83.529640;2.717513;
83.568855;2.717041;
83.608063;2.716513;
83.647278;2.715999;
83.686478;2.715497;
83.725693;2.715016;
83.764862;2.714537;
83.804077;2.714122;
83.843285;2.713640;
83.882500;2.713201;
83.921707;2.712739;
83.960907;2.712266;
84.000122;2.711955;
84.039291;2.711508;
84.078506;2.711074;
84.117714;2.710743;
84.156929;2.710395;
84.196136;2.710059;
84.235352;2.709682;
84.274551;2.709364;
84.313721;2.709090;
84.352936;2.708740;
84.392143;2.708399;
84.431358;2.708082;
84.470566;2.707852;
84.509781;2.707577;
84.548981;2.707328;
84.588173;2.707027;
84.627365;2.706799;
84.666580;2.706618;
84.705788;2.706346;
84.744995;2.706059;
84.784210;2.705802;
84.823410;2.705628;
84.862587;2.705307;
84.901794;2.705076;
84.941010;2.704862;
84.980217;2.704554;
85.019432;2.704378;
85.058640;2.704162;
85.097839;2.703854;
85.137016;2.703633;
85.176224;2.703334;
85.215439;2.703032;
85.254646;2.702690;
85.293861;2.702416;
85.333069;2.702038;
85.372284;2.701732;
85.411446;2.701315;
85.450661;2.701048;
85.489868;2.700599;
85.529076;2.700208;
85.568291;2.699720;
85.607498;2.699322;
85.646713;2.698861;
85.685890;2.698460;
85.725090;2.697935;
85.764297;2.697449;
85.803513;2.696949;
85.842720;2.696474;
85.881935;2.695932;
85.921143;2.695438;
85.960304;2.694908;
85.999519;2.694358;
86.038727;2.693870;
86.077942;2.693289;
86.117149;2.692702;
86.156364;2.692123;
86.195572;2.691584;
86.234749;2.690988;
86.273949;2.690449;
86.313156;2.689816;
86.352371;2.689304;
86.391579;2.688740;
86.430794;2.688240;
86.470001;2.687656;
86.509178;2.687081;
86.548378;2.686495;
86.587593;2.685954;
86.626801;2.685524;
86.666016;2.684944;
86.705223;2.684465;
86.744431;2.683980;
86.783607;2.683474;
86.822807;2.683010;
86.862022;2.682553;
86.901230;2.682104;
86.940445;2.681721;
86.979652;2.681295;
87.018867;2.680856;
87.058037;2.680426;
87.097252;2.680069;
87.136452;2.679725;
87.175659;2.679386;
87.214874;2.679006;
87.254082;2.678658;
87.293297;2.678246;
87.332466;2.677933;
87.371681;2.677722;
87.410881;2.677379;
87.450096;2.677066;
87.489304;2.676726;
87.528511;2.676438;
87.567726;2.676165;
87.606911;2.675862;
87.646111;2.675548;
87.685310;2.675296;
87.724525;2.675040;
87.763733;2.674752;
87.802948;2.674462;
87.842155;2.674063;
87.881332;2.673764;
87.920540;2.673429;
87.959740;2.673092;
87.998955;2.672769;
88.038162;2.672450;
88.077377;2.672028;
88.116585;2.671661;
88.155762;2.671266;
88.194969;2.670815;
88.234184;2.670430;
88.273384;2.669989;
88.312599;2.669534;
88.351807;2.669064;
88.391014;2.668508;
88.430191;2.668048;
88.469398;2.667483;
88.508614;2.667014;
88.547813;2.666392;
88.587029;2.665861;
88.626236;2.665304;
88.665451;2.664683;
88.704620;2.664152;
88.743828;2.663558;
88.783043;2.662982;
88.822243;2.662320;
88.861458;2.661738;
88.900665;2.661075;
88.939880;2.660463;
88.979050;2.659838;
89.018265;2.659216;
89.057472;2.658588;
89.096687;2.657976;
89.135887;2.657289;
89.175095;2.656677;
89.214310;2.656146;
89.253479;2.655475;
89.292694;2.654912;
89.331902;2.654317;
89.371117;2.653689;
89.410316;2.653131;
89.449532;2.652574;
89.488739;2.652076;
89.527939;2.651518;
89.567123;2.650959;
89.606331;2.650450;
89.645546;2.649983;
89.684746;2.649504;
89.723961;2.649022;
89.763168;2.648499;
89.802345;2.648105;
89.841553;2.647688;
89.880768;2.647222;
89.919975;2.646810;
89.959175;2.646419;
89.998390;2.646029;
90.037598;2.645693;
90.076775;2.645301;
90.115982;2.644921;
90.155197;2.644593;
90.194405;2.644250;
90.233620;2.643889;
90.272820;2.643557;
90.312042;2.643294;
90.351204;2.642941;
90.390411;2.642564;
90.429626;2.642223;
90.468834;2.641858;
90.508049;2.641550;
90.547256;2.641137;
90.586472;2.640777;
90.625633;2.640504;
90.664848;2.640102;
90.704056;2.639676;
90.743271;2.639262;
90.782478;2.638848;
90.821686;2.638404;
90.860901;2.637997;
90.900063;2.637533;
90.939278;2.637021;
90.978485;2.636597;
91.017700;2.636084;
91.056908;2.635570;
91.096123;2.635018;
91.135330;2.634435;
91.174492;2.633847;
91.213707;2.633301;
91.252914;2.632641;
91.292130;2.632064;
91.331337;2.631399;
91.370552;2.630711;
91.409760;2.630227;
91.448952;2.629518;
91.488136;2.628859;
91.527351;2.628158;
91.566559;2.627474;
91.605766;2.626761;
91.644981;2.626084;
91.684189;2.625357;
91.723366;2.624676;
91.762566;2.623949;
91.801781;2.623330;
91.840988;2.622644;
91.880203;2.621927;
91.919411;2.621300;
91.958618;2.620595;
91.997795;2.619972;
92.036995;2.619278;
92.076210;2.618651;
92.115417;2.618072;
92.154633;2.617450;
92.193840;2.616879;
92.233055;2.616277;
92.272224;2.615774;
92.311440;2.615185;
92.350639;2.614698;
92.389847;2.614173;
92.429062;2.613696;
92.468269;2.613187;
92.507484;2.612732;
92.546654;2.612238;
92.585869;2.611815;
92.625069;2.611398;
92.664284;2.610929;
92.703491;2.610557;
92.742706;2.610188;
92.781914;2.609819;
92.821083;2.609394;
92.860298;2.609072;
92.899498;2.608666;
92.938713;2.608439;
92.977921;2.608025;
93.017136;2.607657;
93.056343;2.607304;
93.095520;2.607024;
93.134727;2.606632;
93.173927;2.606287;
93.213142;2.605949;
93.252350;2.605563;
93.291565;2.605152;
93.330772;2.604711;
93.369965;2.604326;
93.409157;2.603910;
93.448372;2.603493;
93.487572;2.603056;
93.526787;2.602605;
93.565994;2.602156;
93.605202;2.601574;
93.644379;2.601075;
93.683586;2.600549;
93.722801;2.600065;
93.762001;2.599467;
93.801216;2.598894;
93.840424;2.598294;
93.879639;2.597681;
93.918808;2.597058;
93.958023;2.596461;
93.997231;2.595832;
94.036430;2.595096;
94.075645;2.594454;
94.114853;2.593829;
94.154068;2.593141;
94.193237;2.592475;
94.232452;2.591825;
94.271660;2.591140;
94.310875;2.590502;
94.350075;2.589762;
94.389282;2.589099;
94.428497;2.588382;
94.467667;2.587834;
94.506882;2.587175;
94.546089;2.586511;
94.585304;2.585845;
94.624504;2.585249;
94.663719;2.584622;
94.702927;2.584044;
94.742104;2.583514;
94.781311;2.582937;
94.820518;2.582436;
94.859734;2.581869;
94.898933;2.581287;
94.938148;2.580797;
94.977356;2.580337;
95.016533;2.579894;
95.055740;2.579425;
95.094955;2.579031;
95.134163;2.578604;
95.173378;2.578266;
95.212578;2.577824;
95.251785;2.577449;
95.290970;2.577187;
95.330170;2.576836;
95.369385;2.576452;
95.408592;2.576104;
95.447807;2.575865;
95.487007;2.575543;
95.526222;2.575243;
95.565392;2.574937;
95.604599;2.574624;
95.643814;2.574363;
95.683022;2.574024;
95.722237;2.573719;
95.761436;2.573477;
95.800652;2.573121;
95.839821;2.572820;
95.879036;2.572475;
95.918243;2.572100;
95.957458;2.571748;
95.996666;2.571381;
96.035866;2.570973;
96.075081;2.570660;
96.114250;2.570208;
96.153465;2.569684;
96.192673;2.569227;
96.231888;2.568794;
96.271095;2.568249;
96.310310;2.567892;
96.349510;2.567213;
96.388687;2.566624;
96.427895;2.566061;
96.467102;2.565482;
96.506317;2.564856;
96.545525;2.564232;
96.584740;2.563661;
96.623940;2.563084;
96.663116;2.562492;
96.702324;2.561856;
96.741539;2.561161;
96.780746;2.560525;
96.819954;2.559883;
96.859169;2.559160;
96.898331;2.558604;
96.937546;2.557959;
96.976753;2.557276;
97.015968;2.556703;
97.055176;2.556065;
97.094391;2.555432;
97.133598;2.554793;
97.172775;2.554178;
97.211990;2.553676;
97.251183;2.553040;
97.290398;2.552521;
97.329605;2.551924;
97.368820;2.551395;
97.408028;2.550902;
97.447205;2.550389;
97.486404;2.549966;
97.525620;2.549477;
97.564827;2.549026;
97.604034;2.548575;
97.643250;2.548161;
97.682457;2.547807;
97.721649;2.547395;
97.760834;2.547009;
97.800049;2.546647;
97.839256;2.546286;
97.878471;2.546016;
97.917679;2.545678;
97.956894;2.545342;
97.996063;2.545021;
98.035263;2.544714;
98.074478;2.544385;
98.113686;2.544109;
98.152901;2.543778;
98.192108;2.543409;
98.231323;2.543072;
98.270493;2.542817;
98.309715;2.542401;
98.348907;2.542092;
98.388123;2.541707;
98.427330;2.541238;
98.466537;2.540862;
98.505753;2.540493;
98.544922;2.540082;
98.584137;2.539673;
98.623337;2.539190;
98.662552;2.538719;
98.701759;2.538236;
98.740974;2.537689;
98.780182;2.537061;
98.819351;2.536520;
98.858566;2.535964;
98.897766;2.535353;
98.936981;2.534751;
98.976189;2.534152;
99.015404;2.533440;
99.054611;2.532763;
99.093788;2.532135;
99.132996;2.531431;
99.172211;2.530822;
99.211411;2.530118;
99.250618;2.529410;
99.289833;2.528757;
99.329041;2.527982;
99.368217;2.527340;
99.407425;2.526654;
99.446640;2.526005;
99.485840;2.525231;
99.525055;2.524614;
99.564262;2.523987;
99.603477;2.523297;
99.642662;2.522645;
99.681854;2.521979;
99.721069;2.521411;
99.760269;2.520875;
99.799484;2.520258;
99.838692;2.519678;
99.877907;2.519126;
99.917076;2.518653;
99.956291;2.518138;
99.995499;2.517664;
100.041580;2.517196;
100.073914;2.516704;
100.113121;2.516262;
100.152336;2.515890;
100.191505;2.515573;
100.230736;2.515134;
100.269928;2.514787;
100.309143;2.514403;
100.348343;2.514083;
100.387558;2.513803;
100.426765;2.513475;
100.465935;2.513162;
100.505150;2.512907;
100.544357;2.512612;
100.583572;2.512248;
100.622772;2.511947;
100.661987;2.511637;
100.701195;2.511348;
100.740372;2.511000;
100.779579;2.510687;
100.818794;2.510338;
100.858002;2.510052;
100.897202;2.509585;
100.936417;2.509212;
100.975624;2.508785;
101.014801;2.508342;
101.054008;2.507923;
101.093224;2.507457;
101.132431;2.506955;
101.171646;2.506443;
101.210846;2.505913;
101.250053;2.505381;
101.289230;2.504800;
101.328438;2.504236;
101.367653;2.503554;
101.406860;2.502923;
101.446075;2.502302;
101.485275;2.501661;
101.524490;2.500995;
101.563683;2.500326;
101.602875;2.499687;
101.642082;2.498941;
101.681290;2.498272;
101.720505;2.497593;
101.759705;2.496860;
101.798920;2.496144;
101.838089;2.495433;
101.877304;2.494789;
101.916512;2.494114;
101.955727;2.493490;
101.994934;2.492836;
102.034134;2.492187;
102.073349;2.491588;
102.112518;2.490960;
102.151756;2.490369;
102.190941;2.489773;
102.230156;2.489233;
102.269363;2.488728;
102.308578;2.488199;
102.347778;2.487743;
102.386955;2.487229;
102.426163;2.486758;
102.465370;2.486337;
102.504585;2.485925;
102.543793;2.485581;
102.583008;2.485215;
102.622208;2.484825;
102.661385;2.484503;
102.700592;2.484163;
102.739807;2.483936;
102.779015;2.483577;
102.818230;2.483288;
102.857437;2.483048;
102.896637;2.482688;
102.935814;2.482548;
102.975021;2.482260;
103.014236;2.481930;
103.053444;2.481711;
103.092659;2.481418;
103.131866;2.481077;
103.171082;2.480862;
103.210243;2.480578;
103.249451;2.480244;
103.288666;2.479906;
103.327873;2.479492;
103.367088;2.479202;
103.406296;2.478764;
103.445511;2.478343;
103.484688;2.477993;
103.523888;2.477543;
103.563095;2.477016;
103.602310;2.476581;
103.641518;2.476028;
103.680725;2.475516;
103.719940;2.474993;
103.759102;2.474360;
103.798317;2.473784;
103.837524;2.473208;
103.876740;2.472536;
103.915947;2.471895;
103.955162;2.471269;
103.994370;2.470600;
104.033546;2.469911;
104.072769;2.469252;
104.111954;2.468603;
104.151169;2.467934;
104.190376;2.467205;
104.229591;2.466588;
104.268799;2.465870;
104.307976;2.465258;
104.347176;2.464603;
104.386391;2.463882;
104.425598;2.463326;
104.464806;2.462690;
104.504021;2.462063;
104.543228;2.461498;
104.582413;2.460892;
104.621605;2.460413;
104.660820;2.459852;
104.700027;2.459389;
104.739243;2.458887;
104.778450;2.458394;
104.817665;2.457988;
104.856834;2.457628;
104.896034;2.457265;
104.935249;2.456815;
104.974457;2.456466;
105.013672;2.456117;
105.052879;2.455818;
105.092094;2.455518;
105.131264;2.455261;
105.170479;2.454996;
105.209679;2.454749;
105.248894;2.454454;
105.288101;2.454311;
105.327309;2.454039;
105.366524;2.453849;
105.405693;2.453646;
105.444908;2.453333;
105.484108;2.453102;
105.523323;2.452889;
105.562531;2.452646;
105.601746;2.452360;
105.640953;2.451999;
105.680122;2.451692;
105.719337;2.451289;
105.758537;2.451010;
105.797752;2.450660;
105.836960;2.450195;
105.876175;2.449839;
105.915382;2.449344;
105.954559;2.448797;
105.993782;2.448375;
106.032982;2.447915;
106.072182;2.447349;
106.111389;2.446836;
106.150604;2.446258;
106.189812;2.445584;
106.228989;2.444999;
106.268196;2.444367;
106.307411;2.443733;
106.346611;2.443127;
106.385826;2.442392;
106.425034;2.441824;
106.464249;2.441165;
106.503433;2.440486;
106.542625;2.439806;
106.581841;2.439107;
106.621040;2.438463;
106.660255;2.437805;
106.699463;2.437148;
106.738678;2.436532;
106.777847;2.435845;
106.817062;2.435223;
106.856270;2.434616;
106.895470;2.434110;
106.934685;2.433507;
106.973892;2.432871;
107.013107;2.432356;
107.052277;2.431857;
107.091492;2.431372;
107.130699;2.430937;
107.169914;2.430422;
107.209114;2.430031;
107.248329;2.429622;
107.287537;2.429202;
107.326706;2.428829;
107.365921;2.428454;
107.405128;2.428191;
107.444344;2.427817;
107.483543;2.427506;
107.522758;2.427280;
107.561966;2.427054;
107.601143;2.426745;
107.640350;2.426461;
107.679565;2.426178;
107.718773;2.425862;
107.757973;2.425553;
107.797188;2.425328;
107.836395;2.425019;
107.875572;2.424773;
107.914787;2.424471;
107.953995;2.424212;
107.993202;2.423910;
108.032417;2.423520;
108.071617;2.423106;
108.110825;2.422795;
108.150002;2.422345;
108.189209;2.421938;
108.228424;2.421505;
108.267632;2.421031;
108.306847;2.420567;
108.346046;2.419946;
108.385262;2.419417;
108.424454;2.418870;
108.463646;2.418329;
108.502853;2.417723;
108.542061;2.417045;
108.581276;2.416517;
108.620476;2.415854;
108.659691;2.415161;
108.698860;2.414484;
108.738075;2.413745;
108.777283;2.413062;
108.816498;2.412381;
108.855705;2.411671;
108.894905;2.410936;
108.934120;2.410195;
108.973289;2.409506;
109.012512;2.408806;
109.051712;2.408054;
109.090927;2.407411;
109.130135;2.406781;
109.169350;2.406060;
109.208549;2.405466;
109.247726;2.404804;
109.286934;2.404166;
109.326141;2.403574;
109.365356;2.402995;
109.404564;2.402476;
109.443779;2.401915;
109.482979;2.401348;
109.522156;2.400829;
109.561363;2.400375;
109.600578;2.400007;
109.639786;2.399470;
109.679001;2.399045;
109.718208;2.398700;
109.757408;2.398323;
109.796585;2.397944;
109.835793;2.397552;
109.875008;2.397244;
109.914215;2.396936;
109.953430;2.396601;
109.992638;2.396250;
110.031853;2.395979;
110.071014;2.395636;
110.110222;2.395299;
110.149437;2.394995;
110.188644;2.394660;
110.227859;2.394389;
110.267067;2.394000;
110.306282;2.393660;
110.345467;2.393301;
110.384666;2.392864;
110.423866;2.392472;
110.463081;2.392038;
110.502289;2.391583;
110.541496;2.391163;
110.580711;2.390706;
110.619881;2.390175;
110.659096;2.389567;
110.698296;2.389140;
110.737511;2.388499;
110.776718;2.387841;
110.815933;2.387229;
110.855141;2.386520;
110.894318;2.385816;
110.933533;2.385179;
110.972725;2.384519;
111.011940;2.383775;
111.051147;2.383062;
111.090363;2.382323;
111.129570;2.381590;
111.168747;2.380820;
111.207954;2.379996;
111.247169;2.379261;
111.286369;2.378502;
111.325577;2.377629;
111.364792;2.377007;
111.403999;2.376236;
111.443176;2.375478;
111.482384;2.374754;
111.521599;2.374051;
111.560799;2.373354;
111.600014;2.372627;
111.639221;2.372019;
111.678436;2.371339;
111.717606;2.370708;
111.756813;2.370061;
111.796028;2.369505;
111.835228;2.368906;
111.874443;2.368365;
111.913651;2.367828;
111.952866;2.367354;
111.992035;2.366812;
112.031250;2.366330;
112.070457;2.365876;
112.109673;2.365444;
112.148872;2.364983;
112.188080;2.364593;
112.227295;2.364123;
112.266479;2.363815;
112.305679;2.363366;
112.344887;2.363031;
112.384102;2.363603;
112.423302;2.316453;
112.462517;2.315878;
112.501724;2.315458;
112.540894;2.315047;
112.580109;2.314711;
112.619316;2.314373;
112.658531;2.314086;
112.697731;2.313817;
112.736946;2.313491;
112.776154;2.313206;
112.815331;2.312985;
112.854553;2.312640;
112.893753;2.312382;
112.932961;2.312246;
112.972160;2.311939;
113.011375;2.311727;
113.050583;2.311526;
113.089760;2.311245;
113.128967;2.311032;
113.168182;2.310853;
113.207390;2.310583;
113.246605;2.310337;
113.285805;2.310145;
113.325012;2.309905;
113.364189;2.309644;
113.403397;2.309358;
113.442612;2.309084;
113.481819;2.308837;
113.521034;2.308527;
113.560234;2.308237;
113.599449;2.307993;
113.638618;2.307681;
113.677834;2.307372;
113.717041;2.307059;
113.756248;2.306689;
113.795464;2.306339;
113.834663;2.305983;
113.873878;2.305661;
113.913048;2.305228;
113.952263;2.304889;
113.991470;2.304442;
114.030685;2.303996;
114.069893;2.303696;
114.109108;2.303247;
114.148308;2.302908;
114.187485;2.302409;
114.226692;2.301995;
114.265900;2.301585;
114.305115;2.301182;
114.344322;2.300701;
114.383537;2.300307;
114.422737;2.299896;
114.461914;2.299472;
114.501122;2.299109;
114.540329;2.298651;
114.579544;2.298322;
114.618752;2.297923;
114.657967;2.297549;
114.697166;2.297216;
114.736343;2.296859;
114.775574;2.296536;
114.814766;2.296167;
114.853973;2.295861;
114.893188;2.295563;
114.932396;2.295202;
114.971596;2.294893;
115.010773;2.294597;
115.049980;2.294277;
115.089195;2.294031;
115.128403;2.293728;
115.167618;2.293558;
115.206825;2.293249;
115.246040;2.292939;
115.285217;2.292685;
115.324417;2.292411;
115.363625;2.292176;
115.402832;2.291956;
115.442047;2.291660;
115.481255;2.291428;
115.520470;2.291218;
115.559631;2.290956;
115.598846;2.290740;
115.638054;2.290479;
115.677269;2.290244;
115.716476;2.289934;
115.755684;2.289623;
115.794899;2.289346;
115.834061;2.289041;
115.873276;2.288758;
115.912483;2.288450;
115.951698;2.288129;
115.990906;2.287868;
116.030121;2.287455;
116.069328;2.287068;
116.108513;2.286678;
116.147705;2.286283;
116.186913;2.285915;
116.226128;2.285470;
116.265335;2.285112;
116.304550;2.284648;
116.343758;2.284254;
116.382935;2.283851;
116.422134;2.283392;
116.461349;2.282909;
116.500557;2.282465;
116.539772;2.282054;
