"Piezo Voltage (V)";"Fine In 1 (V)";
80.118736;2.762947;
80.157944;2.762490;
80.197151;2.762022;
80.236366;2.761668;
80.275566;2.761281;
80.314774;2.760903;
80.353951;2.760584;
80.393158;2.760263;
80.432373;2.759804;
80.471581;2.759418;
80.510796;2.759143;
80.549995;2.758702;
80.589211;2.758207;
80.628380;2.757857;
80.667595;2.757357;
80.706802;2.756981;
80.746010;2.756556;
80.785225;2.756081;
80.824425;2.755663;
80.863640;2.755249;
80.902809;2.754751;
80.942032;2.754299;
80.981232;2.753900;
81.020447;2.753402;
81.059654;2.752976;
81.098854;2.752538;
81.138069;2.752066;
81.177238;2.751583;
81.216454;2.751129;
81.255661;2.750736;
81.294876;2.750300;
81.334084;2.749861;
81.373299;2.749418;
81.412498;2.748973;
81.451698;2.748578;
81.490883;2.748148;
81.530090;2.747775;
81.569305;2.747340;
81.608513;2.746928;
81.647728;2.746593;
81.686928;2.746181;
81.726105;2.745924;
81.765312;2.745538;
81.804527;2.745223;
81.843735;2.744865;
81.882950;2.744522;
81.922157;2.744271;
81.961357;2.743901;
82.000534;2.743602;
82.039764;2.743344;
82.078957;2.743128;
82.118164;2.742911;
82.157379;2.742558;
82.196587;2.742351;
82.235802;2.742045;
82.274963;2.741827;
82.314171;2.741667;
82.353386;2.741391;
82.392593;2.741164;
82.431808;2.740891;
82.471016;2.740685;
82.510231;2.740489;
82.549393;2.740335;
82.588608;2.740073;
82.627815;2.739876;
82.667030;2.739607;
82.706238;2.739434;
82.745445;2.739236;
82.784660;2.739016;
82.823822;2.738775;
82.863037;2.738488;
82.902245;2.738261;
82.941460;2.737913;
82.980667;2.737695;
83.019882;2.737342;
83.059090;2.737050;
83.098267;2.736760;
83.137466;2.736428;
83.176674;2.736101;
83.215889;2.735737;
83.255096;2.735360;
83.294312;2.735079;
83.333519;2.734699;
83.372711;2.734251;
83.411896;2.733868;
83.451111;2.733391;
83.490318;2.732983;
83.529526;2.732599;
83.568741;2.732176;
83.607948;2.731646;
83.647125;2.731159;
83.686325;2.730682;
83.725540;2.730193;
83.764748;2.729640;
83.803963;2.729159;
83.843170;2.728722;
83.882385;2.728249;
83.921555;2.727638;
83.960777;2.727171;
83.999969;2.726703;
84.039177;2.726175;
84.078392;2.725677;
84.117599;2.725216;
84.156815;2.724697;
84.195984;2.724212;
84.235199;2.723646;
84.274399;2.723164;
84.313614;2.722832;
84.352821;2.722301;
84.392029;2.721763;
84.431244;2.721344;
84.470413;2.720908;
84.509628;2.720514;
84.548828;2.720128;
84.588043;2.719662;
84.627251;2.719335;
84.666466;2.718960;
84.705673;2.718584;
84.744843;2.718196;
84.784058;2.717933;
84.823257;2.717514;
84.862473;2.717184;
84.901680;2.716889;
84.940895;2.716630;
84.980103;2.716280;
85.019279;2.715991;
85.058487;2.715809;
85.097702;2.715484;
85.136902;2.715242;
85.176109;2.714950;
85.215324;2.714718;
85.254532;2.714474;
85.293716;2.714238;
85.332916;2.713974;
85.372131;2.713753;
85.411331;2.713641;
85.450546;2.713326;
85.489754;2.713094;
85.528961;2.712853;
85.568138;2.712566;
85.607346;2.712362;
85.646561;2.712038;
85.685760;2.711803;
85.724976;2.711539;
85.764183;2.711282;
85.803398;2.710981;
85.842567;2.710650;
85.881798;2.710402;
85.920990;2.710063;
85.960190;2.709714;
85.999405;2.709360;
86.038612;2.708982;
86.077827;2.708644;
86.116997;2.708277;
86.156212;2.707859;
86.195419;2.707396;
86.234634;2.706980;
86.273834;2.706532;
86.313049;2.706115;
86.352257;2.705646;
86.391434;2.705076;
86.430641;2.704566;
86.469849;2.704102;
86.509064;2.703620;
86.548264;2.703136;
86.587479;2.702593;
86.626686;2.702096;
86.665863;2.701550;
86.705070;2.701030;
86.744278;2.700553;
86.783493;2.699940;
86.822693;2.699457;
86.861908;2.698942;
86.901115;2.698359;
86.940292;2.697913;
86.979500;2.697387;
87.018715;2.696859;
87.057922;2.696348;
87.097137;2.695862;
87.136337;2.695390;
87.175545;2.694901;
87.214729;2.694393;
87.253929;2.693983;
87.293144;2.693510;
87.332352;2.693054;
87.371567;2.692594;
87.410767;2.692155;
87.449982;2.691794;
87.489151;2.691396;
87.528366;2.690974;
87.567574;2.690604;
87.606781;2.690325;
87.645996;2.689872;
87.685196;2.689578;
87.724411;2.689225;
87.763580;2.688914;
87.802818;2.688605;
87.842003;2.688277;
87.881218;2.688008;
87.920425;2.687708;
87.959625;2.687411;
87.998840;2.687186;
88.038010;2.686883;
88.077225;2.686668;
88.116432;2.686367;
88.155647;2.686114;
88.194855;2.685837;
88.234070;2.685524;
88.273270;2.685246;
88.312462;2.684991;
88.351654;2.684732;
88.390862;2.684428;
88.430077;2.684160;
88.469284;2.683832;
88.508499;2.683530;
88.547699;2.683151;
88.586876;2.682881;
88.626083;2.682485;
88.665298;2.682178;
88.704506;2.681881;
88.743721;2.681488;
88.782928;2.681153;
88.822128;2.680681;
88.861305;2.680221;
88.900513;2.679780;
88.939728;2.679361;
88.978935;2.678866;
89.018150;2.678403;
89.057358;2.677870;
89.096573;2.677344;
89.135735;2.676840;
89.174942;2.676291;
89.214157;2.675759;
89.253365;2.675164;
89.292580;2.674711;
89.331787;2.674068;
89.371002;2.673452;
89.410164;2.672874;
89.449379;2.672286;
89.488586;2.671738;
89.527802;2.671118;
89.567009;2.670479;
89.606216;2.669877;
89.645432;2.669295;
89.684593;2.668670;
89.723831;2.668074;
89.763016;2.667481;
89.802231;2.666915;
89.841438;2.666295;
89.880653;2.665665;
89.919861;2.665148;
89.959038;2.664558;
89.998238;2.663978;
90.037445;2.663461;
90.076660;2.662914;
90.115868;2.662375;
90.155083;2.661752;
90.194290;2.661251;
90.233482;2.660718;
90.272667;2.660202;
90.311890;2.659709;
90.351089;2.659142;
90.390297;2.658645;
90.429512;2.658095;
90.468719;2.657532;
90.507896;2.657032;
90.547104;2.656523;
90.586319;2.655956;
90.625519;2.655431;
90.664734;2.654843;
90.703941;2.654400;
90.743156;2.653732;
90.782326;2.653129;
90.821541;2.652517;
90.860748;2.651849;
90.899948;2.651208;
90.939163;2.650536;
90.978371;2.649804;
91.017586;2.649091;
91.056755;2.648445;
91.095970;2.647563;
91.135178;2.646664;
91.174377;2.645720;
91.213593;2.644856;
91.252800;2.643807;
91.292015;2.642827;
91.331184;2.641807;
91.370399;2.640724;
91.409607;2.639481;
91.448822;2.638250;
91.488022;2.637007;
91.527237;2.635756;
91.566444;2.634307;
91.605614;2.632948;
91.644836;2.631506;
91.684036;2.629955;
91.723251;2.628401;
91.762451;2.626792;
91.801666;2.625216;
91.840874;2.623492;
91.880051;2.621804;
91.919258;2.620082;
91.958473;2.618371;
91.997681;2.616590;
92.036880;2.614790;
92.076096;2.612983;
92.115303;2.611185;
92.154503;2.609305;
92.193687;2.607467;
92.232903;2.605610;
92.272110;2.603747;
92.311325;2.601945;
92.350525;2.600118;
92.389732;2.598295;
92.428909;2.596442;
92.468117;2.594701;
92.507332;2.592875;
92.546539;2.591088;
92.585754;2.589369;
92.624954;2.587658;
92.664169;2.585996;
92.703339;2.584296;
92.742561;2.582704;
92.781761;2.581064;
92.820976;2.579515;
92.860184;2.578051;
92.899384;2.576521;
92.938599;2.575042;
92.977768;2.573637;
93.016983;2.572205;
93.056190;2.570895;
93.095406;2.569571;
93.134613;2.568317;
93.173828;2.567118;
93.213028;2.566004;
93.252197;2.564784;
93.291412;2.563715;
93.330620;2.562654;
93.369835;2.561651;
93.409042;2.560640;
93.448257;2.559700;
93.487457;2.558771;
93.526634;2.557818;
93.565842;2.556934;
93.605049;2.556102;
93.644264;2.555236;
93.683472;2.554441;
93.722687;2.553652;
93.761887;2.552893;
93.801064;2.552059;
93.840271;2.551326;
93.879486;2.550607;
93.918694;2.549897;
93.957909;2.549103;
93.997116;2.548468;
94.036316;2.547718;
94.075516;2.546979;
94.114700;2.546207;
94.153915;2.545513;
94.193123;2.544787;
94.232338;2.544047;
94.271545;2.543211;
94.310760;2.542492;
94.349922;2.541730;
94.389137;2.540933;
94.428345;2.540146;
94.467552;2.539285;
94.506767;2.538521;
94.545975;2.537762;
94.585190;2.536990;
94.624352;2.536152;
94.663589;2.535383;
94.702774;2.534614;
94.741989;2.533831;
94.781197;2.533059;
94.820404;2.532396;
94.859619;2.531576;
94.898781;2.530951;
94.937996;2.530287;
94.977203;2.529677;
95.016418;2.528997;
95.055626;2.528411;
95.094841;2.527856;
95.134048;2.527348;
95.173225;2.526876;
95.212425;2.526474;
95.251640;2.526128;
95.290848;2.525799;
95.330055;2.525575;
95.369270;2.525342;
95.408478;2.525268;
95.447655;2.525163;
95.486855;2.525089;
95.526070;2.525151;
95.565277;2.525194;
95.604485;2.525331;
95.643700;2.525505;
95.682907;2.525829;
95.722084;2.526121;
95.761284;2.526528;
95.800499;2.526948;
95.839706;2.527417;
95.878922;2.528130;
95.918129;2.528737;
95.957344;2.529518;
95.996529;2.530304;
96.035713;2.531129;
96.074928;2.531991;
96.114136;2.532942;
96.153351;2.533885;
96.192558;2.534835;
96.231773;2.535872;
96.270943;2.536910;
96.310158;2.538081;
96.349358;2.539057;
96.388573;2.540046;
96.427780;2.541103;
96.466988;2.542242;
96.506203;2.543296;
96.545372;2.544387;
96.584602;2.545407;
96.623787;2.546431;
96.663002;2.547397;
96.702209;2.548383;
96.741425;2.549278;
96.780632;2.550153;
96.819801;2.551003;
96.859016;2.551870;
96.898216;2.552609;
96.937431;2.553329;
96.976639;2.553954;
97.015854;2.554589;
97.055061;2.555084;
97.094238;2.555609;
97.133446;2.556027;
97.172661;2.556460;
97.211861;2.556869;
97.251076;2.557170;
97.290283;2.557408;
97.329491;2.557586;
97.368668;2.557805;
97.407875;2.557933;
97.447090;2.558082;
97.486290;2.558061;
97.525505;2.558180;
97.564713;2.558192;
97.603928;2.558235;
97.643097;2.558225;
97.682304;2.558204;
97.721519;2.558171;
97.760719;2.557966;
97.799934;2.557986;
97.839142;2.557793;
97.878357;2.557777;
97.917534;2.557622;
97.956741;2.557522;
97.995949;2.557417;
98.035149;2.557310;
98.074364;2.557100;
98.113571;2.557049;
98.152786;2.556907;
98.191956;2.556736;
98.231171;2.556618;
98.270378;2.556463;
98.309593;2.556298;
98.348793;2.556120;
98.388008;2.555992;
98.427216;2.555884;
98.466385;2.555694;
98.505615;2.555445;
98.544807;2.555304;
98.584023;2.555140;
98.623222;2.554979;
98.662437;2.554767;
98.701645;2.554516;
98.740822;2.554299;
98.780029;2.554008;
98.819244;2.553715;
98.858452;2.553501;
98.897652;2.553122;
98.936867;2.552850;
98.976074;2.552472;
99.015259;2.552111;
99.054459;2.551716;
99.093674;2.551295;
99.132881;2.550801;
99.172096;2.550369;
99.211296;2.549829;
99.250504;2.549322;
99.289680;2.548767;
99.328888;2.548169;
99.368103;2.547702;
99.407310;2.547008;
99.446526;2.546381;
99.485725;2.545789;
99.524940;2.545184;
99.564110;2.544502;
99.603325;2.543841;
99.642532;2.543127;
99.681740;2.542495;
99.720955;2.541660;
99.760155;2.541032;
99.799370;2.540270;
99.838539;2.539493;
99.877754;2.538792;
99.916962;2.538061;
99.956177;2.537277;
99.995384;2.536512;
100.041580;2.535819;
100.073799;2.534974;
100.112968;2.534326;
100.152184;2.533589;
100.191391;2.532836;
100.230606;2.532185;
100.269814;2.531474;
100.309029;2.530758;
100.348228;2.530077;
100.387405;2.529447;
100.426636;2.528753;
100.465820;2.528132;
100.505035;2.527466;
100.544243;2.526831;
100.583458;2.526149;
100.622658;2.525570;
100.661835;2.524901;
100.701042;2.524349;
100.740257;2.523771;
100.779465;2.523153;
100.818680;2.522615;
100.857887;2.521994;
100.897087;2.521461;
100.936279;2.520898;
100.975471;2.520289;
101.014687;2.519769;
101.053894;2.519200;
101.093109;2.518668;
101.132317;2.518104;
101.171532;2.517562;
101.210693;2.517022;
101.249908;2.516438;
101.289116;2.515875;
101.328323;2.515200;
101.367538;2.514650;
101.406746;2.514034;
101.445961;2.513370;
101.485123;2.512696;
101.524338;2.511988;
101.563545;2.511327;
101.602760;2.510637;
101.641968;2.509914;
101.681183;2.509189;
101.720390;2.508424;
101.759552;2.507660;
101.798767;2.506920;
101.837975;2.506124;
101.877190;2.505232;
101.916397;2.504437;
101.955612;2.503611;
101.994820;2.502801;
102.033997;2.501931;
102.073196;2.501105;
102.112404;2.500263;
102.151619;2.499374;
102.190826;2.498521;
102.230042;2.497757;
102.269249;2.496888;
102.308426;2.496145;
102.347641;2.495267;
102.386841;2.494502;
102.426048;2.493658;
102.465256;2.492782;
102.504471;2.492087;
102.543678;2.491340;
102.582855;2.490635;
102.622055;2.489959;
102.661270;2.489253;
102.700478;2.488576;
102.739693;2.487935;
102.778900;2.487414;
102.818115;2.486800;
102.857300;2.486264;
102.896484;2.485792;
102.935699;2.485317;
102.974907;2.484797;
103.014122;2.484462;
103.053329;2.484055;
103.092545;2.483684;
103.131714;2.483301;
103.170929;2.483038;
103.210129;2.482666;
103.249344;2.482414;
103.288551;2.482132;
103.327759;2.481867;
103.366974;2.481667;
103.406143;2.481369;
103.445358;2.481079;
103.484558;2.480927;
103.523773;2.480647;
103.562981;2.480474;
103.602196;2.480195;
103.641403;2.479925;
103.680573;2.479666;
103.719788;2.479431;
103.758987;2.479140;
103.798203;2.478791;
103.837410;2.478586;
103.876625;2.478143;
103.915833;2.477763;
103.955009;2.477421;
103.994217;2.477047;
104.033432;2.476577;
104.072632;2.476078;
104.111839;2.475583;
104.151054;2.475054;
104.190262;2.474535;
104.229439;2.473974;
104.268646;2.473367;
104.307861;2.472802;
104.347061;2.472179;
104.386276;2.471534;
104.425484;2.470924;
104.464699;2.470275;
104.503868;2.469608;
104.543076;2.468989;
104.582291;2.468269;
104.621490;2.467630;
104.660706;2.466907;
104.699913;2.466234;
104.739128;2.465524;
104.778313;2.464945;
104.817513;2.464261;
104.856720;2.463550;
104.895920;2.462889;
104.935135;2.462281;
104.974342;2.461657;
105.013557;2.461100;
105.052727;2.460423;
105.091942;2.459957;
105.131149;2.459400;
105.170364;2.458833;
105.209564;2.458388;
105.248779;2.457940;
105.287987;2.457425;
105.327156;2.457057;
105.366371;2.456697;
105.405579;2.456369;
105.444794;2.455987;
105.483994;2.455649;
105.523209;2.455419;
105.562416;2.455175;
105.601593;2.454950;
105.640800;2.454707;
105.680016;2.454497;
105.719223;2.454331;
105.758423;2.454227;
105.797638;2.453994;
105.836845;2.453905;
105.876022;2.453729;
105.915230;2.453633;
105.954445;2.453506;
105.993652;2.453339;
106.032867;2.453244;
106.072067;2.453127;
106.111282;2.453020;
106.150452;2.452854;
106.189659;2.452703;
106.228874;2.452509;
106.268082;2.452370;
106.307297;2.452134;
106.346497;2.451971;
106.385712;2.451697;
106.424881;2.451396;
106.464096;2.451136;
106.503304;2.450897;
106.542511;2.450560;
106.581726;2.450171;
106.620926;2.449768;
106.660141;2.449345;
106.699333;2.448933;
106.738525;2.448467;
106.777733;2.448050;
106.816948;2.447494;
106.856155;2.447026;
106.895355;2.446482;
106.934570;2.445900;
106.973740;2.445363;
107.012955;2.444824;
107.052162;2.444267;
107.091377;2.443736;
107.130585;2.443142;
107.169800;2.442532;
107.209000;2.442020;
107.248177;2.441400;
107.287384;2.440821;
107.326591;2.440232;
107.365807;2.439609;
107.405014;2.439145;
107.444229;2.438611;
107.483429;2.438017;
107.522606;2.437522;
107.561813;2.437048;
107.601028;2.436510;
107.640236;2.436023;
107.679451;2.435558;
107.718658;2.435171;
107.757858;2.434755;
107.797035;2.434398;
107.836243;2.433974;
107.875458;2.433573;
107.914665;2.433239;
107.953880;2.432844;
107.993088;2.432583;
108.032303;2.432220;
108.071465;2.431921;
108.110672;2.431607;
108.149887;2.431245;
108.189095;2.431000;
108.228310;2.430670;
108.267517;2.430319;
108.306732;2.430067;
108.345894;2.429727;
108.385109;2.429440;
108.424316;2.429102;
108.463531;2.428766;
108.502739;2.428477;
108.541946;2.428048;
108.581161;2.427645;
108.620338;2.427296;
108.659538;2.426811;
108.698746;2.426365;
108.737961;2.425890;
108.777168;2.425408;
108.816383;2.424875;
108.855591;2.424355;
108.894768;2.423837;
108.933968;2.423190;
108.973175;2.422626;
109.012390;2.421968;
109.051598;2.421319;
109.090813;2.420755;
109.130020;2.420007;
109.169197;2.419345;
109.208397;2.418682;
109.247612;2.418027;
109.286819;2.417246;
109.326027;2.416515;
109.365242;2.415870;
109.404449;2.415119;
109.443626;2.414412;
109.482826;2.413717;
109.522041;2.413056;
109.561249;2.412379;
109.600464;2.411705;
109.639671;2.411052;
109.678886;2.410430;
109.718056;2.409797;
109.757256;2.409098;
109.796471;2.408537;
109.835678;2.407959;
109.874893;2.407418;
109.914101;2.406786;
109.953316;2.406278;
109.992485;2.405824;
110.031700;2.405306;
110.070900;2.404835;
110.110115;2.404375;
110.149323;2.403966;
110.188530;2.403575;
110.227745;2.403224;
110.266914;2.402864;
110.306129;2.402503;
110.345337;2.402143;
110.384552;2.401847;
110.423752;2.401571;
110.462967;2.401187;
110.502174;2.400901;
110.541351;2.400593;
110.580559;2.400348;
110.619766;2.399970;
110.658981;2.399677;
110.698181;2.399366;
110.737396;2.399022;
110.776604;2.398691;
110.815781;2.398441;
110.854988;2.398004;
110.894203;2.397617;
110.933411;2.397276;
110.972610;2.396866;
111.011826;2.396420;
111.051033;2.395971;
111.090210;2.395515;
111.129417;2.394996;
111.168633;2.394493;
111.207840;2.393947;
111.247055;2.393409;
111.286255;2.392818;
111.325470;2.392172;
111.364639;2.391614;
111.403847;2.390954;
111.443062;2.390335;
111.482269;2.389657;
111.521484;2.388960;
111.560684;2.388263;
111.599899;2.387565;
111.639076;2.386831;
111.678284;2.386114;
111.717491;2.385467;
111.756699;2.384791;
111.795914;2.384081;
111.835114;2.383350;
111.874329;2.382643;
111.913498;2.382025;
111.952713;2.381258;
111.991920;2.380627;
112.031136;2.380020;
112.070343;2.379369;
112.109558;2.378669;
112.148758;2.378152;
112.187927;2.377577;
112.227142;2.377056;
112.266350;2.376505;
112.305565;2.375966;
112.344772;2.375485;
112.383987;2.374938;
112.423187;2.374478;
112.462364;2.374064;
112.501572;2.373671;
112.540779;2.373204;
112.579994;2.372787;
112.619202;2.372385;
112.658417;2.372068;
112.697617;2.371712;
112.736794;2.371382;
112.776001;2.371039;
112.815216;2.370718;
112.854424;2.370367;
112.893639;2.370020;
112.932846;2.369660;
112.972046;2.369362;
113.011223;2.369055;
113.050430;2.368715;
113.089645;2.368249;
113.128853;2.367774;
113.168068;2.366753;
113.207275;2.365542;
113.246490;2.364423;
113.285652;2.309745;
113.324867;2.309383;
113.364075;2.309006;
113.403282;2.308783;
113.442497;2.308486;
113.481705;2.308186;
113.520920;2.308011;
113.560104;2.307741;
113.599297;2.307454;
113.638504;2.307240;
113.677719;2.306988;
113.716927;2.306673;
113.756134;2.306434;
113.795349;2.306183;
113.834511;2.305987;
113.873726;2.305713;
113.912933;2.305436;
113.952148;2.305134;
113.991356;2.304841;
114.030571;2.304595;
114.069778;2.304251;
114.108955;2.303977;
114.148155;2.303684;
114.187363;2.303302;
114.226578;2.302917;
114.265785;2.302638;
114.305000;2.302277;
114.344208;2.301979;
114.383385;2.301530;
114.422585;2.301219;
114.461800;2.300844;
114.501007;2.300493;
114.540222;2.300096;
114.579430;2.299724;
114.618637;2.299379;
114.657814;2.298952;
114.697014;2.298597;
114.736229;2.298190;
114.775436;2.297853;
114.814651;2.297468;
114.853859;2.297179;
114.893074;2.296725;
114.932243;2.296375;
114.971443;2.296121;
115.010658;2.295751;
115.049866;2.295458;
115.089081;2.295032;
115.128288;2.294692;
115.167503;2.294434;
115.206673;2.294128;
115.245888;2.293822;
115.285088;2.293490;
115.324303;2.293271;
115.363510;2.292954;
115.402718;2.292726;
115.441933;2.292435;
115.481117;2.292222;
115.520317;2.291972;
115.559517;2.291702;
115.598732;2.291438;
115.637939;2.291268;
115.677155;2.291004;
115.716362;2.290792;
115.755539;2.290575;
115.794746;2.290367;
115.833946;2.290198;
115.873161;2.289993;
115.912369;2.289777;
115.951584;2.289566;
115.990753;2.289361;
116.029968;2.289119;
116.069176;2.288781;
116.108391;2.288612;
116.147591;2.288388;
116.186798;2.288215;
116.226013;2.287909;
116.265182;2.287671;
116.304398;2.287422;
116.343605;2.287118;
116.382820;2.286878;
116.422020;2.286573;
116.461235;2.286258;
116.500443;2.285951;
116.539619;2.285622;
